# GET [h], theta [deg], phi [deg]
224.76772,9.7948676,-171.34199
224.76862,9.743126,-171.30845
224.76952,9.6913888,-171.27458
224.77042,9.6396898,-171.2406
224.77132,9.5880178,-171.20643
224.7723,9.5322262,-171.16814
224.7732,9.4806067,-171.13355
224.7741,9.4290121,-171.09879
224.775,9.377438,-171.06376
224.77591,9.3257486,-171.02745
224.77681,9.274221,-170.99195
224.77771,9.2227344,-170.95641
224.77861,9.1712667,-170.92054
224.77951,9.1198354,-170.88454
224.78041,9.0684243,-170.84833
224.78139,9.0129185,-170.8077
224.78229,8.9615564,-170.77089
224.78319,8.9102266,-170.73398
224.7841,8.8759516,-170.70014
224.785,8.8515316,-170.66998
224.7859,8.8271121,-170.6396
224.7868,8.802709,-170.60921
224.7877,8.7783139,-170.57868
224.7886,8.753942,-170.54814
224.78958,8.7275303,-170.51372
224.79048,8.7031683,-170.48287
224.79138,8.6787993,-170.45185
224.7923,8.654162,-170.41826
224.7932,8.6298212,-170.38704
224.7941,8.6055005,-170.35581
224.795,8.5811906,-170.32445
224.7959,8.556876,-170.29288
224.7968,8.5325641,-170.26112
224.79778,8.5062567,-170.22557
224.79868,8.4819575,-170.19355
224.79958,8.4576935,-170.16154
224.80049,8.4433794,-170.14949
224.80139,8.449564,-170.18174
224.80229,8.455766,-170.2141
224.80319,8.4619858,-170.24655
224.8041,8.468112,-170.27803
224.805,8.4743857,-170.31082
224.80591,8.4805584,-170.34259
224.80687,8.4874974,-170.37941
224.80779,8.4935792,-170.41025
224.80869,8.4999616,-170.44367
224.80959,8.5063792,-170.47736
224.81049,8.5128023,-170.51107
224.81139,8.5192648,-170.54498
224.81229,8.5257551,-170.57904
224.8132,8.5321271,-170.61199
224.8141,8.5386608,-170.64633
224.81506,8.5458587,-170.68467
224.81598,8.5521552,-170.71674
224.81688,8.5588063,-170.74221
224.81778,8.566777,-170.38764
224.81868,8.5751081,-170.03404
224.81958,8.5837721,-169.68118
224.82048,8.5928016,-169.32934
224.8214,8.6018921,-168.97583
224.8223,8.6115941,-168.62577
224.8232,8.6216494,-168.27681
224.82417,8.6328419,-167.90194
224.82507,8.6436029,-167.55507
224.82597,8.654692,-167.20913
224.82687,8.6661118,-166.86428
224.82777,8.6778771,-166.52063
224.82867,8.6899587,-166.17801
224.82959,8.7021408,-165.83405
224.83049,8.7148803,-165.49374
224.83139,8.7279607,-165.1547
224.83237,8.7422713,-164.78947
224.83327,8.7560134,-164.45289
224.83417,8.7538294,-164.34555
224.83507,8.7452698,-164.32875
224.83597,8.7367228,-164.31206
224.83687,8.7281873,-164.29553
224.83778,8.7195534,-164.27777
224.83868,8.7110563,-164.26157
224.83958,8.7025719,-164.24539
224.84048,8.6941052,-164.22937
224.84146,8.6848662,-164.21084
224.84236,8.6764296,-164.19507
224.84326,8.66801,-164.17944
224.84416,8.6596067,-164.16404
224.84506,8.651209,-164.14858
224.84598,8.6426035,-164.13082
224.84688,8.6342447,-164.11571
224.84778,8.6258956,-164.10076
224.84868,8.6175613,-164.08588
224.84966,8.6084849,-164.06866
224.85056,8.5972526,-164.06731
224.85146,8.5818046,-164.0853
224.85236,8.5663592,-164.10341
224.85327,8.5508272,-164.12061
224.85417,8.535418,-164.13929
224.85507,8.5200233,-164.15815
224.85597,8.5046438,-164.17725
224.85687,8.4892786,-164.19652
224.85777,8.4739272,-164.21614
224.85875,8.4573069,-164.2362
224.85965,8.4419828,-164.25615
224.86055,8.426685,-164.27654
224.86147,8.4111654,-164.29439
224.86237,8.3959011,-164.31525
224.86327,8.3806505,-164.33627
224.86417,8.3654034,-164.35748
224.86507,8.3501887,-164.37902
224.86597,8.3349792,-164.40078
224.86694,8.3196195,-164.41971
224.86784,8.314468,-164.39603
224.86874,8.3093407,-164.37254
224.86966,8.3039992,-164.34665
224.87056,8.2988891,-164.32336
224.87146,8.2938031,-164.3002
224.87236,8.2887308,-164.27716
224.87326,8.2836715,-164.25425
224.87416,8.2786372,-164.23156
224.87508,8.2733821,-164.20642
224.87604,8.2680803,-164.18329
224.87694,8.2630802,-164.16084
224.87785,8.2579953,-164.13742
224.87875,8.253022,-164.11531
224.87965,8.2480626,-164.09322
224.88055,8.2431225,-164.0713
224.88145,8.2381913,-164.04952
224.88235,8.2332741,-164.02787
224.88327,8.2281597,-164.00379
224.88423,8.210807,-163.87368
224.88513,8.1906017,-163.71509
224.88605,8.1702752,-163.5535
224.88695,8.1502232,-163.39352
224.88785,8.130252,-163.23304
224.88875,8.1103404,-163.07171
224.88965,8.0905215,-162.90988
224.89055,8.0707614,-162.74723
224.89146,8.0509648,-162.58246
224.89236,8.0313564,-162.41845
224.89333,8.0103232,-162.24097
224.89424,7.9907657,-162.07412
224.89514,7.9713917,-161.90798
224.89604,7.9520941,-161.741
224.89694,7.9328671,-161.57337
224.89784,7.913718,-161.40506
224.89874,7.8946453,-161.23603
224.89966,7.8754534,-161.06353
224.90056,7.8499814,-160.80853
224.90154,7.8125403,-160.3981
224.90244,7.7782498,-160.01498
224.90334,7.7443235,-159.62875
224.90424,7.7107746,-159.23928
224.90514,7.6775848,-158.84654
224.90604,7.644798,-158.45087
224.90695,7.6123051,-158.0506
224.90785,7.5802871,-157.64853
224.90875,7.548664,-157.24327
224.90965,7.5174402,-156.83491
224.91063,7.4841684,-156.39
224.91153,7.4537829,-155.97507
224.91243,7.4238,-155.55703
224.91333,7.394238,-155.13582
224.91423,7.3650885,-154.71153
224.91515,7.3362247,-154.28122
224.91605,7.3079259,-153.85071
224.91695,7.2785072,-153.46409
224.91785,7.2354732,-153.49463
224.91882,7.1891406,-153.52814
224.91972,7.1461265,-153.55995
224.92062,7.1031436,-153.59261
224.92152,7.0601567,-153.6258
224.92242,7.017188,-153.65958
224.92334,6.974094,-153.69108
224.92514,6.888221,-153.76231
224.92604,6.8453051,-153.79885
224.92694,6.8023977,-153.8363
224.92792,6.7561367,-153.87566
224.92882,6.7132543,-153.91456
224.92972,6.6703972,-153.95422
224.93062,6.6275414,-153.99462
224.93153,6.5846449,-154.03447
224.93243,6.5418213,-154.07658
224.93333,6.4990157,-154.11939
224.93423,6.4949951,-153.90248
224.93513,6.5012513,-153.61857
224.93611,6.5080944,-153.31177
224.93701,6.5146879,-153.02921
224.93791,6.5214535,-152.74765
224.93881,6.5283797,-152.46662
224.93973,6.5353539,-152.18335
224.94063,6.5426102,-151.90391
224.94153,6.5500333,-151.6255
224.94243,6.5576104,-151.34768
224.94333,6.5653541,-151.07071
224.94423,6.5732619,-150.79478
224.9452,6.5819466,-150.49827
224.9461,6.5901813,-150.22391
224.94702,6.598459,-149.94736
224.94792,6.6070093,-149.67479
224.94882,6.6157158,-149.40306
224.94972,6.6245821,-149.13245
224.95062,6.6352906,-149.00635
224.95152,6.647843,-149.03261
224.95242,6.6604041,-149.05921
224.9534,6.6738855,-149.0863
224.9543,6.6864697,-149.11317
224.95522,6.6989619,-149.13716
224.95612,6.7115567,-149.16421
224.95702,6.7241653,-149.19153
224.95792,6.7367868,-149.21899
224.95882,6.7494181,-149.2466
224.95972,6.7620565,-149.27438
224.96063,6.7746461,-149.30057
224.96431,6.8262562,-149.41401
224.96521,6.8389527,-149.44256
224.96611,6.8516617,-149.47127
224.96701,6.8639397,-149.50075
224.96791,6.8742226,-149.53392
224.96883,6.8844026,-149.56402
224.96973,6.8947045,-149.59735
224.97069,6.9058539,-149.63468
224.9716,6.9161152,-149.66659
224.9725,6.926444,-149.70009
224.9734,6.9367757,-149.73367
224.9743,6.947114,-149.76721
224.9752,6.9574647,-149.80099
224.9761,6.9678204,-149.83485
224.97702,6.9780842,-149.86573
224.97792,6.9884583,-149.89967
224.97888,6.9996924,-149.93766
224.9798,7.0099773,-149.96879
224.9807,7.0203796,-150.00299
224.9816,7.0307815,-150.03705
224.9825,7.0412082,-150.07143
224.9834,7.0516331,-150.10578
224.9843,7.0675613,-149.86001
224.98521,7.0844317,-149.57247
224.98611,7.1015404,-149.2878
224.98701,7.1188252,-149.00459
224.98799,7.1375858,-148.69991
224.98889,7.1552396,-148.41984
224.98979,7.1730689,-148.1414
224.99069,7.1910717,-147.86444
224.9916,7.2092011,-147.58754
224.9925,7.2275497,-147.31359
224.99341,7.2460191,-147.03972
224.99431,7.2647109,-146.7691
224.99521,7.2835635,-146.49966
224.99619,7.3039973,-146.20968
224.99709,7.3231927,-145.94362
224.99799,7.3425514,-145.67893
224.99889,7.3620661,-145.41573
224.99979,7.3817383,-145.15406
225.0007,7.3654369,-145.07419
225.0016,7.3211442,-145.13796
225.0025,7.2768693,-145.20277
225.0034,7.2325991,-145.26851
225.0043,7.1883409,-145.33525
225.00528,7.1406686,-145.40699
225.00618,7.0964445,-145.47591
225.00708,7.0522328,-145.54595
225.00798,7.0080405,-145.61696
225.0089,6.9637838,-145.6863
225.0098,6.9196227,-145.75968
225.0107,6.8754761,-145.83429
225.0116,6.8313471,-145.90992
225.0125,6.7872314,-145.98678
225.01347,6.7397355,-146.07064
225.01437,6.6956461,-146.14994
225.01527,6.6515877,-146.23074
225.01617,6.6075443,-146.31258
225.01709,6.5713064,-146.25295
225.01799,6.5584441,-145.78645
225.01889,6.5460341,-145.31842
225.01979,6.5340622,-144.84888
225.02069,6.5225374,-144.37791
225.02159,6.5114629,-143.90533
225.02257,6.500011,-143.39351
225.02347,6.4898713,-142.91834
225.02437,6.4801843,-142.44183
225.02528,6.4709298,-141.96283
225.02618,6.4621615,-141.48416
225.02708,6.4538447,-141.00453
225.02798,6.4459858,-140.52367
225.02888,6.4385896,-140.04214
225.02979,6.4316318,-139.5583
225.03076,6.4246745,-139.03783
225.03166,6.4186898,-138.55377
225.03256,6.4131782,-138.06914
225.03348,6.4080965,-137.58106
225.03438,6.3899215,-137.32541
225.03528,6.3711169,-137.08135
225.03618,6.3524309,-136.83598
225.03708,6.3338668,-136.5896
225.03798,6.3154157,-136.34172
225.0389,6.2970647,-136.0898
225.03986,6.2774668,-135.82136
225.04077,6.2593843,-135.56828
225.04167,6.2414242,-135.31525
225.04257,6.22359,-135.06101
225.04347,6.205884,-134.80553
225.04437,6.1882892,-134.54869
225.04527,6.1708305,-134.29057
225.04617,6.1534912,-134.03141
225.04709,6.1362776,-133.76759
225.04805,6.1178881,-133.48701
225.04897,6.1009476,-133.22063
225.04987,6.0841342,-132.95606
225.05077,6.0695532,-132.96649
225.05167,6.0562133,-133.13302
225.05257,6.0429271,-133.30028
225.05347,6.0296983,-133.46858
225.05438,6.0165131,-133.63638
225.05528,6.0033844,-133.80626
225.05618,5.9903137,-133.97745
225.05716,5.9762919,-134.16115
225.05806,5.963327,-134.33406
225.05896,5.9504216,-134.50802
225.05986,5.937571,-134.68291
225.06076,5.9247789,-134.85882
225.06166,5.9120349,-135.03532
225.06258,5.8993506,-135.20999
225.06348,5.8867212,-135.38862
225.06438,5.8741541,-135.56826
225.06535,5.8606871,-135.76257
225.06625,5.8482471,-135.94412
225.06715,5.8469488,-136.04229
225.06805,5.8680161,-135.97183
225.06895,5.8890844,-135.90211
225.06985,5.9101674,-135.83308
225.07077,5.9312498,-135.76173
225.07167,5.952352,-135.69415
225.07257,5.9734652,-135.62731
225.07347,5.9945871,-135.56112
225.07445,6.0173301,-135.48904
225.07535,6.0384724,-135.42422
225.07625,6.059618,-135.36023
225.07715,6.0807718,-135.29674
225.07805,6.1019383,-135.23407
225.07896,6.123101,-135.17035
225.07986,6.1442736,-135.1089
225.08076,6.1654648,-135.04808
225.08167,6.1866489,-134.98644
225.08264,6.2094863,-134.92199
225.08354,6.2305047,-134.85989
225.08444,6.2440633,-134.66284
225.08534,6.2576991,-134.46675
225.08624,6.2714039,-134.27181
225.08716,6.2851779,-134.07502
225.08806,6.299027,-133.88198
225.08896,6.3129498,-133.68974
225.08986,6.3269476,-133.49868
225.09076,6.3410111,-133.30856
225.09174,6.3562342,-133.10346
225.09264,6.3704437,-132.91521
225.09354,6.3847204,-132.72808
225.09445,6.3990647,-132.54049
225.09535,6.4134854,-132.35533
225.09625,6.4279649,-132.17095
225.09715,6.4425106,-131.98749
225.09805,6.4571187,-131.80521
225.09895,6.4717935,-131.62359
225.09993,6.4876784,-131.42786
225.10083,6.4966131,-131.2055
225.10173,6.5033228,-130.96673
225.10265,6.5101597,-130.72594
225.10355,6.5170936,-130.48855
225.10445,6.5241352,-130.25178
225.10535,6.5312947,-130.0157
225.10625,6.5385603,-129.77992
225.10715,6.5459404,-129.54519
225.10806,6.5534317,-129.30968
225.10902,6.5616034,-129.0595
225.10992,6.5693114,-128.82679
225.11084,6.577151,-128.59207
225.11174,6.5850744,-128.3608
225.11264,6.5931017,-128.13008
225.11354,6.6012408,-127.90018
225.11444,6.6094765,-127.6709
225.11534,6.6178199,-127.44238
225.11626,6.6262958,-127.21186
225.11722,6.6256969,-127.04946
225.11812,6.6103116,-127.02073
225.11903,6.5949354,-126.99081
225.11993,6.5795431,-126.96208
225.12083,6.5641544,-126.93332
225.12173,6.5487648,-126.90471
225.12263,6.5333799,-126.87591
225.12354,6.5180049,-126.8459
225.12445,6.5026285,-126.81584
225.12535,6.4872391,-126.78704
225.12631,6.4706499,-126.75723
225.12723,6.4552937,-126.72581
225.12813,6.4399038,-126.69706
225.12903,6.4245162,-126.66828
225.12993,6.4091237,-126.63945
225.13083,6.3937338,-126.61071
225.13173,6.3783491,-126.58162
225.13264,6.3629752,-126.55149
225.13354,6.34779,-126.52278
225.13452,6.3402839,-126.49718
225.13542,6.3332943,-126.47477
225.13632,6.3263085,-126.45251
225.13722,6.3193235,-126.43029
225.13812,6.312332,-126.40799
225.13902,6.3053476,-126.38592
225.13992,6.2983494,-126.36393
225.14084,6.2913966,-126.33944
225.14174,6.2844054,-126.31775
225.14264,6.2774109,-126.29576
225.14362,6.2698948,-126.27115
225.14452,6.262908,-126.24948
225.14542,6.2559077,-126.22807
225.14632,6.2489132,-126.20675
225.14722,6.2419231,-126.18527
225.14813,6.2349346,-126.16273
225.14903,6.2279405,-126.14167
225.14993,6.2209434,-126.12068
225.15083,6.2391286,-125.95559
225.15181,6.2695644,-125.71716
225.15271,6.2979027,-125.49922
225.15361,6.3263311,-125.28333
225.15451,6.3548436,-125.06957
225.15541,6.383445,-124.85781
225.15633,6.4121645,-124.64576
225.15723,6.440937,-124.43795
225.15813,6.4697854,-124.23239
225.15903,6.49872,-124.02862
225.15993,6.5277288,-123.82678
225.1609,6.5590566,-123.61153
225.1618,6.5882359,-123.41366
225.1627,6.6174771,-123.21765
225.1636,6.6468002,-123.02356
225.16452,6.6762436,-122.82904
225.16542,6.7057124,-122.63859
225.16632,6.7352531,-122.44989
225.16722,6.7493999,-122.35738
225.16812,6.7412035,-122.40202
225.1691,6.7324044,-122.44908
225.17,6.7242102,-122.49417
225.1709,6.7160161,-122.53961
225.1718,6.7078274,-122.58507
225.17271,6.6996553,-122.62986
225.17361,6.6914692,-122.67592
225.17451,6.6832831,-122.72223
225.17542,6.6751216,-122.76767
225.17632,6.6669373,-122.81453
225.17729,6.6581287,-122.86514
225.17819,6.6499409,-122.91252
225.1791,6.6417909,-122.95874
225.18,6.6336126,-123.00644
225.18091,6.6254643,-123.05338
225.18181,6.6172908,-123.10178
225.18271,6.6091166,-123.15037
225.18361,6.5989493,-123.17256
225.18451,6.5710192,-122.95924
225.18541,6.5431811,-122.74422
225.18639,6.5133349,-122.50913
225.18729,6.4856837,-122.29021
225.1882,6.4581558,-122.06835
225.1891,6.4306944,-121.84588
225.19,6.4033263,-121.62148
225.1909,6.3760565,-121.39518
225.1918,6.3488861,-121.16698
225.1927,6.321819,-120.9367
225.1936,6.294848,-120.70468
225.19458,6.2659481,-120.45121
225.19548,6.2391885,-120.21514
225.1964,6.2126029,-119.97451
225.1973,6.1860605,-119.73444
225.1982,6.1596279,-119.49218
225.1991,6.1332937,-119.24809
225.2,6.1070753,-119.00186
225.2009,6.0887589,-118.70228
225.20181,6.0726732,-118.38678
225.20271,6.0567279,-118.07099
225.20367,6.0397255,-117.73064
225.20459,6.0242263,-117.40922
225.20549,6.0088334,-117.08905
225.20639,5.9936154,-116.76752
225.20729,5.9785947,-116.44437
225.20819,5.9637502,-116.12
225.20909,5.9490807,-115.7942
225.21,5.9346517,-115.46555
225.2109,5.9203528,-115.137
225.21187,5.9051851,-114.78154
225.21278,5.8913206,-114.44892
225.21368,5.8776122,-114.11613
225.21458,5.8640958,-113.78186
225.21548,5.8507653,-113.44652
225.21638,5.8376342,-113.10975
225.21729,5.8465885,-112.80924
225.2182,5.87883,-112.55146
225.2191,5.9111425,-112.29772
225.22,5.9435605,-112.04698
225.22098,5.978649,-111.77882
225.22188,6.0112919,-111.53388
225.22278,6.04404,-111.29168
225.22368,6.0768937,-111.05217
225.22458,6.1098504,-110.81533
225.22548,6.1429029,-110.58112
225.2264,6.1761539,-110.3472
225.2273,6.2094197,-110.11799
225.2282,6.2427598,-109.89156
225.22917,6.2787755,-109.65026
225.23007,6.3123189,-109.42875
225.23097,6.345944,-109.20973
225.23187,6.3796521,-108.99318
225.23277,6.4134522,-108.77895
225.23367,6.4405748,-108.61685
225.23459,6.4365696,-108.68412
225.23549,6.432464,-108.75368
225.23639,6.4283562,-108.8236
225.23729,6.4242553,-108.89357
225.23827,6.4199135,-108.9678
225.23917,6.4158221,-109.03823
225.24007,6.4117407,-109.10864
225.24097,6.4076697,-109.17929
225.24188,6.4036494,-109.24897
225.24278,6.3995918,-109.31992
225.24368,6.3955257,-109.39125
225.24458,6.3914748,-109.46257
225.24548,6.3874334,-109.534
225.24646,6.3831373,-109.6101
225.24736,6.3791029,-109.68189
225.24826,6.3750811,-109.75387
225.24916,6.3710622,-109.82602
225.25008,6.3671399,-109.89648
225.25098,6.3623883,-110.07442
225.25188,6.3575721,-110.26878
225.25278,6.3528374,-110.46334
225.25368,6.3481506,-110.65864
225.25458,6.3435379,-110.85422
225.25555,6.3386455,-111.06543
225.25645,6.3341601,-111.26217
225.25735,6.3297533,-111.45901
225.25827,6.3254999,-111.65449
225.25917,6.3212271,-111.85237
225.26007,6.31701,-112.05084
225.26097,6.312871,-112.24976
225.26187,6.3087982,-112.4489
225.26277,6.3047937,-112.64874
225.26375,6.3006062,-112.86296
225.26465,6.2967468,-113.06357
225.26555,6.2929511,-113.26477
225.26646,6.2892727,-113.46506
225.26736,6.306957,-113.41972
225.26826,6.3413412,-113.18429
225.26917,6.3758649,-112.95048
225.27007,6.4104503,-112.72013
225.27097,6.4451386,-112.49244
225.27188,6.4799657,-112.26614
225.27284,6.5174979,-112.02716
225.27374,6.5524886,-111.80694
225.27466,6.5876641,-111.58711
225.27556,6.6228355,-111.37159
225.27646,6.6581087,-111.15834
225.27736,6.6934684,-110.94748
225.27826,6.7289084,-110.73884
225.27916,6.7644339,-110.53245
225.28008,6.8001484,-110.32637
225.28104,6.8385525,-110.10972
225.28195,6.8743887,-109.90898
225.28285,6.9102598,-109.71143
225.28375,6.9252223,-109.49894
225.28465,6.8789135,-109.23607
225.28555,6.8327319,-108.97003
225.28645,6.7866989,-108.70023
225.28735,6.7407929,-108.42733
225.28827,6.6951514,-108.14874
225.28917,6.64953,-107.86864
225.29015,6.6006282,-107.56184
225.29105,6.5553219,-107.27407
225.29195,6.5101747,-106.9825
225.29285,6.4651753,-106.68712
225.29375,6.4203392,-106.38785
225.29465,6.3756739,-106.08451
225.29556,6.3312168,-105.7763
225.29646,6.2868864,-105.46487
225.29736,6.2427227,-105.14929
225.29834,6.1954269,-104.80356
225.29924,6.1516294,-104.47925
225.30014,6.1080354,-104.15017
225.30104,6.1436357,-103.7491
225.30194,6.1839432,-103.34942
225.30284,6.2245348,-102.9551
225.30376,6.2655415,-102.56392
225.30466,6.3067043,-102.17979
225.30556,6.3481466,-101.80077
225.30646,6.3898378,-101.4269
225.30743,6.4350431,-101.02967
225.30833,6.4772751,-100.66593
225.30923,6.5197645,-100.30694
225.31013,6.5624995,-99.952671
225.31104,6.60554,-99.6022
225.31195,6.6488081,-99.256507
225.31285,6.6922446,-98.916103
225.31375,6.7359102,-98.580127
225.31465,6.7797846,-98.248721
225.31563,6.8273613,-97.895687
225.31653,6.8716903,-97.573048
225.31743,6.8628136,-97.537922
225.31833,6.8238876,-97.664349
225.31923,6.784981,-97.79229
225.32014,6.7461793,-97.92093
225.32104,6.7073348,-98.052066
225.32195,6.6685772,-98.183987
225.32285,6.6297801,-98.318424
225.32375,6.5910121,-98.454547
225.32472,6.5493022,-98.602876
225.32562,6.5105941,-98.742607
225.32652,6.4719192,-98.884069
225.32742,6.4332766,-99.027338
225.32834,6.3947949,-99.170742
225.32924,6.3562186,-99.317652
225.33014,6.3176786,-99.466366
225.33104,6.2791724,-99.617172
225.33194,6.2407032,-99.769954
225.33292,6.1993758,-99.935684
225.33382,6.1887177,-100.04659
225.33618,6.3070494,-100.094
225.33708,6.3522729,-100.11193
225.33798,6.3974812,-100.12996
225.33888,6.4426921,-100.14764
225.3398,6.4880136,-100.16358
225.3407,6.5331967,-100.18118
225.3416,6.5783849,-100.19842
225.3425,6.6235612,-100.21574
225.34348,6.6722674,-100.23329
225.34438,6.7174243,-100.25031
225.34528,6.7625821,-100.26711
225.34618,6.8077239,-100.28387
225.34708,6.8528546,-100.30054
225.34799,6.8980575,-100.31621
225.34889,6.9431793,-100.3326
225.3498,6.9883497,-100.34817
225.3507,6.9900815,-100.3599
225.35167,6.9555932,-100.36883
225.35257,6.9235537,-100.37746
225.35347,6.8915126,-100.38614
225.35437,6.8594582,-100.39506
225.35527,6.8273939,-100.40426
225.35619,6.7954664,-100.41182
225.35709,6.7634003,-100.42118
225.35799,6.7313268,-100.43067
225.35889,6.6992544,-100.44037
225.35979,6.6671716,-100.45022
225.36076,6.6326251,-100.46093
225.36166,6.6005351,-100.47109
225.36256,6.5684401,-100.48155
225.36348,6.5364614,-100.49039
225.36438,6.5043589,-100.50114
