# GET [h], RA [h], DEC [deg]
224.76772,12.181851,-16.877036
224.76862,12.181282,-16.912486
224.76952,12.180713,-16.94796
224.77042,12.180142,-16.983426
224.77132,12.179569,-17.018894
224.7723,12.178953,-17.057072
224.7732,12.178377,-17.092548
224.7741,12.1778,-17.128029
224.775,12.177222,-17.163517
224.77591,12.176642,-17.198971
224.77681,12.176062,-17.234471
224.77771,12.175478,-17.269959
224.77861,12.174894,-17.305457
224.77951,12.174308,-17.340947
224.78041,12.17372,-17.376446
224.78139,12.173087,-17.414656
224.78229,12.172497,-17.450165
224.78319,12.171905,-17.48567
224.7841,12.171409,-17.503965
224.785,12.170967,-17.512609
224.7859,12.170526,-17.521285
224.7868,12.170083,-17.529977
224.7877,12.16964,-17.538693
224.7886,12.169195,-17.547419
224.78958,12.168717,-17.55683
224.79048,12.168272,-17.565613
224.79138,12.167827,-17.574435
224.7923,12.167382,-17.583214
224.7932,12.166936,-17.592073
224.7941,12.166487,-17.600944
224.795,12.166038,-17.609835
224.7959,12.16559,-17.618763
224.7968,12.165141,-17.627721
224.79778,12.164657,-17.637346
224.79868,12.164207,-17.646357
224.79958,12.163756,-17.655363
224.80049,12.16301,-17.654222
224.80139,12.16167,-17.63265
224.80229,12.16033,-17.611081
224.80319,12.158991,-17.589517
224.8041,12.157651,-17.5679
224.805,12.156311,-17.546325
224.80591,12.154971,-17.524705
224.80687,12.153527,-17.501488
224.80779,12.152187,-17.479837
224.80869,12.150847,-17.45824
224.80959,12.149504,-17.436629
224.81049,12.148164,-17.415035
224.81139,12.146822,-17.393422
224.81229,12.14548,-17.371803
224.8132,12.144139,-17.350158
224.8141,12.142797,-17.328538
224.81506,12.14135,-17.30527
224.81598,12.140011,-17.283602
224.81688,12.138765,-17.261941
224.81778,12.141464,-17.239573
224.81868,12.144161,-17.217186
224.81958,12.146859,-17.19481
224.82048,12.149554,-17.172407
224.8214,12.152252,-17.149966
224.8223,12.154947,-17.12757
224.8232,12.157639,-17.105156
224.82417,12.160539,-17.081015
224.82507,12.16323,-17.058587
224.82597,12.165921,-17.036162
224.82687,12.168611,-17.013735
224.82777,12.171299,-16.991288
224.82867,12.173987,-16.968851
224.82959,12.176676,-16.946345
224.83049,12.179362,-16.923898
224.83139,12.182047,-16.901429
224.83237,12.184939,-16.877211
224.83327,12.187622,-16.854741
224.83417,12.18769,-16.844193
224.83507,12.186724,-16.838372
224.83597,12.185758,-16.832555
224.83687,12.184791,-16.826743
224.83778,12.183827,-16.820909
224.83868,12.18286,-16.815091
224.83958,12.181894,-16.809279
224.84048,12.180928,-16.803465
224.84146,12.17989,-16.797197
224.84236,12.178924,-16.791389
224.84326,12.177958,-16.78558
224.84416,12.176992,-16.77977
224.84506,12.176027,-16.773974
224.84598,12.175064,-16.768127
224.84688,12.174099,-16.762323
224.84778,12.173133,-16.756527
224.84868,12.172168,-16.750732
224.84966,12.17113,-16.744464
224.85056,12.170006,-16.741347
224.85146,12.168653,-16.742096
224.85236,12.167301,-16.74286
224.85327,12.165948,-16.74359
224.85417,12.164595,-16.744349
224.85507,12.163243,-16.745111
224.85597,12.16189,-16.745874
224.85687,12.160538,-16.74664
224.85777,12.159185,-16.747408
224.85875,12.157729,-16.748194
224.85965,12.156378,-16.748971
224.86055,12.155024,-16.749734
224.86147,12.153676,-16.750472
224.86237,12.152323,-16.751235
224.86327,12.15097,-16.752002
224.86417,12.149618,-16.752783
224.86507,12.148266,-16.753547
224.86597,12.146914,-16.754322
224.86694,12.145511,-16.754227
224.86784,12.144687,-16.745781
224.86874,12.143863,-16.737326
224.86966,12.14304,-16.728835
224.87056,12.142216,-16.720397
224.87146,12.141393,-16.71195
224.87236,12.140569,-16.703506
224.87326,12.139745,-16.695065
224.87416,12.13892,-16.686614
224.87508,12.138098,-16.678136
224.87604,12.13721,-16.669074
224.87694,12.136387,-16.66064
224.87785,12.135563,-16.652173
224.87875,12.134739,-16.643742
224.87965,12.133916,-16.635316
224.88055,12.133093,-16.626884
224.88145,12.13227,-16.61846
224.88235,12.131446,-16.610037
224.88327,12.130625,-16.601568
224.88423,12.130897,-16.606833
224.88513,12.131537,-16.616497
224.88605,12.132176,-16.626113
224.88695,12.132815,-16.635809
224.88785,12.133452,-16.645511
224.88875,12.134089,-16.65525
224.88965,12.134725,-16.664985
224.89055,12.135361,-16.674756
224.89146,12.135999,-16.684537
224.89236,12.136634,-16.694344
224.89333,12.137317,-16.704916
224.89424,12.137953,-16.714748
224.89514,12.138586,-16.724611
224.89604,12.139221,-16.734494
224.89694,12.139854,-16.744401
224.89784,12.140486,-16.754326
224.89874,12.141118,-16.764269
224.89966,12.141753,-16.774198
224.90056,12.143022,-16.792506
224.90154,12.145383,-16.825171
224.90244,12.147576,-16.855505
224.90334,12.149768,-16.885826
224.90424,12.151961,-16.916127
224.90514,12.154156,-16.946433
224.90604,12.156348,-16.976692
224.90695,12.158543,-17.00692
224.90785,12.160736,-17.037153
224.90875,12.16293,-17.067366
224.90965,12.165123,-17.097559
224.91063,12.167488,-17.130044
224.91153,12.169682,-17.160202
224.91243,12.171876,-17.190348
224.91333,12.174071,-17.22047
224.91423,12.176265,-17.250577
224.91515,12.178462,-17.280618
224.91605,12.180657,-17.31069
224.91695,12.182418,-17.340414
224.91785,12.180309,-17.367207
224.91882,12.178037,-17.396052
224.91972,12.175927,-17.422847
224.92062,12.173815,-17.449613
224.92152,12.171703,-17.476398
224.92242,12.169592,-17.503177
224.92334,12.167481,-17.529909
224.92514,12.163254,-17.583444
224.92604,12.161141,-17.610212
224.92694,12.159026,-17.636975
224.92792,12.15675,-17.66577
224.92882,12.154635,-17.692534
224.92972,12.152519,-17.719283
224.93062,12.150403,-17.746044
224.93153,12.148286,-17.772758
224.93243,12.146169,-17.799505
224.93333,12.144052,-17.826249
224.93423,12.144796,-17.824878
224.93513,12.146285,-17.816162
224.93611,12.14789,-17.806779
224.93701,12.149379,-17.7981
224.93791,12.150867,-17.789415
224.93881,12.152356,-17.780753
224.93973,12.153845,-17.772043
224.94063,12.155334,-17.763399
224.94153,12.15682,-17.754751
224.94243,12.158308,-17.746128
224.94333,12.159795,-17.737509
224.94423,12.161281,-17.728886
224.9452,12.162882,-17.719622
224.9461,12.164369,-17.711029
224.94702,12.165856,-17.702405
224.94792,12.167342,-17.69383
224.94882,12.168828,-17.685266
224.94972,12.170312,-17.676696
224.95062,12.170757,-17.660314
224.95152,12.170103,-17.635644
224.95242,12.169447,-17.610962
224.9534,12.168741,-17.584359
224.9543,12.168085,-17.55967
224.95522,12.16743,-17.534932
224.95612,12.166775,-17.51025
224.95702,12.166118,-17.485555
224.95792,12.165461,-17.460853
224.95882,12.164803,-17.436147
224.95972,12.164145,-17.411439
224.96063,12.16349,-17.386724
224.96431,12.160807,-17.28593
224.96521,12.160149,-17.261205
224.96611,12.15949,-17.236473
224.96701,12.158795,-17.212012
224.96791,12.157934,-17.188757
224.96883,12.157075,-17.165479
224.96973,12.156213,-17.142221
224.97069,12.155284,-17.117194
224.9716,12.154423,-17.093929
224.9725,12.153561,-17.070673
224.9734,12.152699,-17.047422
224.9743,12.151837,-17.024178
224.9752,12.150974,-17.000923
224.9761,12.15011,-16.97767
224.97702,12.14925,-16.954383
224.97792,12.148386,-16.931132
224.97888,12.147455,-16.906105
224.9798,12.146594,-16.882822
224.9807,12.145729,-16.859567
224.9816,12.144866,-16.836331
224.9825,12.144001,-16.813067
224.9834,12.143136,-16.789817
224.9843,12.144616,-16.773673
224.98521,12.146448,-16.758552
224.98611,12.148279,-16.743429
224.98701,12.150109,-16.728295
224.98799,12.15208,-16.711952
224.98889,12.15391,-16.696784
224.98979,12.155738,-16.681593
224.99069,12.157567,-16.666387
224.9916,12.159397,-16.651149
224.9925,12.161225,-16.635908
224.99341,12.163054,-16.620641
224.99431,12.164879,-16.605346
224.99521,12.166707,-16.590057
224.99619,12.168676,-16.573567
224.99709,12.170501,-16.55823
224.99799,12.172328,-16.542883
224.99889,12.174154,-16.527526
224.99979,12.175979,-16.512153
225.0007,12.175302,-16.51946
225.0016,12.172677,-16.544449
225.0025,12.170051,-16.569421
225.0034,12.167423,-16.594399
225.0043,12.164795,-16.619372
225.00528,12.161963,-16.646212
225.00618,12.159333,-16.671162
225.00708,12.156701,-16.696106
225.00798,12.154069,-16.721043
225.0089,12.151437,-16.745935
225.0098,12.148802,-16.770849
225.0107,12.146165,-16.795751
225.0116,12.143528,-16.820653
225.0125,12.14089,-16.845548
225.01347,12.138049,-16.872358
225.01437,12.13541,-16.89725
225.01527,12.132768,-16.92211
225.01617,12.130126,-16.946978
225.01709,12.128722,-16.971274
225.01799,12.130935,-16.994072
225.01889,12.133148,-17.01684
225.01979,12.13536,-17.039597
225.02069,12.137573,-17.062334
225.02159,12.139788,-17.085064
225.02257,12.142173,-17.109483
225.02347,12.144387,-17.13217
225.02437,12.146602,-17.154845
225.02528,12.148817,-17.17747
225.02618,12.151033,-17.200097
225.02708,12.153247,-17.222706
225.02798,12.155464,-17.245313
225.02888,12.15768,-17.267883
225.02979,12.159897,-17.290417
225.03076,12.162284,-17.314686
225.03166,12.164501,-17.337216
225.03256,12.166719,-17.359714
225.03348,12.168937,-17.382153
225.03438,12.169181,-17.402239
225.03528,12.169314,-17.422194
225.03618,12.169447,-17.442152
225.03708,12.169579,-17.462093
225.03798,12.169711,-17.482057
225.0389,12.169843,-17.501968
225.03986,12.169985,-17.523497
225.04077,12.170115,-17.543428
225.04167,12.170246,-17.563401
225.04257,12.170376,-17.583369
225.04347,12.170505,-17.603332
225.04437,12.170634,-17.623315
225.04527,12.170763,-17.64329
225.04617,12.17089,-17.663257
225.04709,12.171021,-17.683206
225.04805,12.171157,-17.704736
225.04897,12.171286,-17.72468
225.04987,12.171413,-17.744667
225.05077,12.170067,-17.74564
225.05167,12.167891,-17.735899
225.05257,12.165717,-17.726151
225.05347,12.163543,-17.716373
225.05438,12.161368,-17.706554
225.05528,12.159195,-17.696761
225.05618,12.15702,-17.68692
225.05716,12.154679,-17.676285
225.05806,12.152505,-17.666427
225.05896,12.150331,-17.656538
225.05986,12.148157,-17.646633
225.06076,12.145982,-17.636702
225.06166,12.143809,-17.626784
225.06258,12.141637,-17.616775
225.06348,12.139463,-17.606804
225.06438,12.137289,-17.596808
225.06535,12.134948,-17.586025
225.06625,12.132775,-17.575991
225.06715,12.131527,-17.561706
225.06805,12.132143,-17.53885
225.06895,12.132759,-17.516006
225.06985,12.133374,-17.493163
225.07077,12.133991,-17.470284
225.07167,12.134606,-17.44745
225.07257,12.13522,-17.424618
225.07347,12.135835,-17.401792
225.07445,12.136497,-17.377198
225.07535,12.137111,-17.354384
225.07625,12.137724,-17.331569
225.07715,12.138338,-17.308769
225.07805,12.138951,-17.285959
225.07896,12.139565,-17.263156
225.07986,12.140178,-17.240369
225.08076,12.14079,-17.217577
225.08167,12.141403,-17.19478
225.08264,12.142064,-17.170259
225.08354,12.142684,-17.14781
225.08444,12.143683,-17.138714
225.08534,12.144682,-17.129608
225.08624,12.14568,-17.120484
225.08716,12.14668,-17.111316
225.08806,12.147679,-17.102181
225.08896,12.148678,-17.093048
225.08986,12.149677,-17.08389
225.09076,12.150675,-17.074727
225.09174,12.151751,-17.064827
225.09264,12.15275,-17.055657
225.09354,12.153749,-17.046467
225.09445,12.154748,-17.037255
225.09535,12.155746,-17.028037
225.09625,12.156745,-17.018831
225.09715,12.157744,-17.009617
225.09805,12.158742,-17.000381
225.09895,12.159741,-16.991156
225.09993,12.160817,-16.981168
225.10083,12.161823,-16.979656
225.10173,12.162834,-16.981215
225.10265,12.163846,-16.982724
225.10355,12.164856,-16.984259
225.10445,12.165866,-16.98579
225.10535,12.166876,-16.987305
225.10625,12.167889,-16.988842
225.10715,12.1689,-16.990337
225.10806,12.169912,-16.991821
225.10902,12.171001,-16.99344
225.10992,12.172013,-16.994917
225.11084,12.173026,-16.996355
225.11174,12.174038,-16.997812
225.11264,12.175051,-16.999271
225.11354,12.176063,-17.000709
225.11444,12.177076,-17.002152
225.11534,12.178089,-17.003578
225.11626,12.179104,-17.004973
225.11722,12.179245,-17.00703
225.11812,12.177936,-17.009715
225.11903,12.176626,-17.012383
225.11993,12.175317,-17.01508
225.12083,12.174008,-17.017779
225.12173,12.172699,-17.020469
225.12263,12.171391,-17.023176
225.12354,12.170083,-17.025865
225.12445,12.168776,-17.028561
225.12535,12.167469,-17.03128
225.12631,12.166061,-17.034228
225.12723,12.164756,-17.036917
225.12813,12.163449,-17.03964
225.12903,12.162142,-17.042369
225.12993,12.160836,-17.045107
225.13083,12.15953,-17.047838
225.13173,12.158226,-17.050597
225.13264,12.156922,-17.053324
225.13354,12.155627,-17.055929
225.13452,12.15467,-17.052479
225.13542,12.15378,-17.0493
225.13632,12.15289,-17.046113
225.13722,12.152001,-17.04293
225.13812,12.151112,-17.039765
225.13902,12.150223,-17.036584
225.13992,12.149333,-17.033414
225.14084,12.148445,-17.030198
225.14174,12.147555,-17.027012
225.14264,12.146667,-17.023862
225.14362,12.14571,-17.02042
225.14452,12.144822,-17.017253
225.14542,12.143932,-17.014083
225.14632,12.143042,-17.010908
225.14722,12.142154,-17.00775
225.14813,12.141266,-17.004573
225.14903,12.140376,-17.001399
225.14993,12.139487,-16.998229
225.15083,12.140652,-16.988775
225.15181,12.142783,-16.975883
225.15271,12.14476,-16.963938
225.15361,12.146738,-16.952001
225.15451,12.148714,-16.940067
225.15541,12.150691,-16.928139
225.15633,12.152668,-16.91617
225.15723,12.154645,-16.904261
225.15813,12.156619,-16.892338
225.15903,12.158595,-16.880432
225.15993,12.16057,-16.868534
225.1609,12.162697,-16.855723
225.1618,12.164672,-16.843829
225.1627,12.166646,-16.831953
225.1636,12.16862,-16.820072
225.16452,12.170594,-16.808151
225.16542,12.172568,-16.796282
225.16632,12.174541,-16.784421
225.16722,12.17519,-16.774452
225.16812,12.173923,-16.767215
225.1691,12.17256,-16.7594
225.17,12.171293,-16.752161
225.1709,12.170026,-16.744909
225.1718,12.16876,-16.73767
225.17271,12.167493,-16.730395
225.17361,12.166226,-16.72314
225.17451,12.164959,-16.715884
225.17542,12.163692,-16.708603
225.17632,12.162425,-16.701334
225.17729,12.16106,-16.693504
225.17819,12.159792,-16.686234
225.1791,12.158526,-16.678955
225.18,12.157259,-16.671691
225.18091,12.155992,-16.664387
225.18181,12.154724,-16.657095
225.18271,12.153456,-16.649809
225.18361,12.152236,-16.646241
225.18451,12.151426,-16.675604
225.18541,12.150614,-16.704965
225.18639,12.14974,-16.73659
225.18729,12.148926,-16.765978
225.1882,12.148111,-16.795344
225.1891,12.147293,-16.82473
225.19,12.146474,-16.854129
225.1909,12.145654,-16.883534
225.1918,12.144833,-16.912942
225.1927,12.144011,-16.942369
225.1936,12.143186,-16.971786
225.19458,12.142298,-17.003464
225.19548,12.14147,-17.032891
225.1964,12.140643,-17.062296
225.1973,12.139813,-17.09173
225.1982,12.138982,-17.121181
225.1991,12.138148,-17.150625
225.2,12.137313,-17.180076
225.2009,12.137051,-17.207468
225.20181,12.136939,-17.234283
225.20271,12.136826,-17.261115
225.20367,12.136703,-17.289999
225.20459,12.136592,-17.316799
225.20549,12.136478,-17.343607
225.20639,12.136364,-17.370406
225.20729,12.136252,-17.397209
225.20819,12.136138,-17.423992
225.20909,12.136024,-17.450778
225.21,12.135912,-17.477552
225.2109,12.135798,-17.504324
225.21187,12.135676,-17.533137
225.21278,12.135562,-17.55988
225.21368,12.135448,-17.58663
225.21458,12.135335,-17.61339
225.21548,12.13522,-17.640121
225.21638,12.135106,-17.666854
225.21729,12.13613,-17.678303
225.2182,12.13836,-17.673578
225.2191,12.14059,-17.668847
225.22,12.142819,-17.664075
225.22098,12.145221,-17.658888
225.22188,12.14745,-17.654059
225.22278,12.14968,-17.649202
225.22368,12.151909,-17.644316
225.22458,12.154139,-17.639401
225.22548,12.156369,-17.63446
225.2264,12.158601,-17.629465
225.2273,12.160833,-17.624475
225.2282,12.163063,-17.619444
225.22917,12.165466,-17.614004
225.23007,12.167697,-17.608927
225.23097,12.169928,-17.603821
225.23187,12.172159,-17.59868
225.23277,12.17439,-17.593512
225.23367,12.176025,-17.586677
225.23459,12.174901,-17.57221
225.23549,12.173776,-17.557775
225.23639,12.17265,-17.543326
225.23729,12.171524,-17.528893
225.23827,12.170315,-17.513347
225.23917,12.169189,-17.498909
225.24007,12.168064,-17.484491
225.24097,12.166939,-17.470068
225.24188,12.165815,-17.455643
225.24278,12.164691,-17.441227
225.24368,12.163565,-17.426799
225.24458,12.16244,-17.41239
225.24548,12.161316,-17.397986
225.24646,12.160106,-17.382452
225.24736,12.158982,-17.368058
225.24826,12.157858,-17.353661
225.24916,12.156734,-17.339269
225.25008,12.15561,-17.324825
225.25098,12.15411,-17.302438
225.25188,12.152552,-17.278828
225.25278,12.150997,-17.25522
225.25368,12.14944,-17.231579
225.25458,12.147884,-17.207938
225.25555,12.146208,-17.182447
225.25645,12.144651,-17.158759
225.25735,12.143097,-17.135088
225.25827,12.141543,-17.111339
225.25917,12.139988,-17.087624
225.26007,12.138433,-17.063885
225.26097,12.136878,-17.040123
225.26187,12.135324,-17.016373
225.26277,12.133769,-16.992581
225.26375,12.132097,-16.966956
225.26465,12.130543,-16.943143
225.26555,12.128989,-16.919304
225.26646,12.127436,-16.895458
225.26736,12.128173,-16.88333
225.26826,12.130692,-16.880327
225.26917,12.13321,-16.877332
225.27007,12.135728,-16.874393
225.27097,12.138246,-16.871464
225.27188,12.140765,-16.868555
225.27284,12.143477,-16.865485
225.27374,12.145995,-16.862641
225.27466,12.148515,-16.859792
225.27556,12.151034,-16.857009
225.27646,12.153553,-16.854252
225.27736,12.156072,-16.851512
225.27826,12.15859,-16.848806
225.27916,12.161108,-16.846125
225.28008,12.163628,-16.84343
225.28104,12.166341,-16.84062
225.28195,12.16886,-16.83801
225.28285,12.171379,-16.835425
225.28375,12.172655,-16.84398
225.28465,12.170291,-16.884969
225.28555,12.167925,-16.925936
225.28645,12.16556,-16.966934
225.28735,12.163192,-17.007889
225.28827,12.160827,-17.048832
225.28917,12.158457,-17.089789
225.29015,12.155905,-17.133877
225.29105,12.153534,-17.174823
225.29195,12.151161,-17.215765
225.29285,12.148787,-17.256701
225.29375,12.146412,-17.297627
225.29465,12.144037,-17.338555
225.29556,12.14166,-17.379453
225.29646,12.139281,-17.420362
225.29736,12.136902,-17.461264
225.29834,12.134339,-17.505294
225.29924,12.131956,-17.546165
225.30014,12.129574,-17.587061
225.30104,12.132514,-17.60514
225.30194,12.135752,-17.621931
225.30284,12.138989,-17.638709
225.30376,12.142229,-17.65547
225.30466,12.145468,-17.672255
225.30556,12.148707,-17.68903
225.30646,12.151944,-17.705791
225.30743,12.155432,-17.723835
225.30833,12.158671,-17.740589
225.30923,12.16191,-17.75734
225.31013,12.165149,-17.774089
225.31104,12.168389,-17.790816
225.31195,12.171629,-17.807522
225.31285,12.174868,-17.82425
225.31375,12.178108,-17.840976
225.31465,12.181347,-17.857678
225.31563,12.184837,-17.875654
225.31653,12.188078,-17.892365
225.31743,12.187056,-17.891964
225.31833,12.183633,-17.881913
225.31923,12.18021,-17.871841
225.32014,12.176789,-17.86173
225.32104,12.173366,-17.851596
225.32195,12.169945,-17.841422
225.32285,12.166522,-17.831231
225.32375,12.1631,-17.821012
225.32472,12.159415,-17.809985
225.32562,12.155992,-17.799706
225.32652,12.152571,-17.789403
225.32742,12.149149,-17.779071
225.32834,12.145729,-17.768681
225.32924,12.142307,-17.758298
225.33014,12.138887,-17.7479
225.33104,12.135466,-17.737455
225.33194,12.132045,-17.726981
225.33292,12.128362,-17.715668
225.33382,12.126897,-17.701172
225.33618,12.133376,-17.642448
225.33708,12.135853,-17.620039
225.33798,12.138329,-17.597623
225.33888,12.140806,-17.575243
225.3398,12.143283,-17.552841
225.3407,12.145758,-17.530477
225.3416,12.148234,-17.508151
225.3425,12.150709,-17.485817
225.34348,12.153374,-17.461779
225.34438,12.155849,-17.439487
225.34528,12.158323,-17.417219
225.34618,12.160797,-17.394962
225.34708,12.16327,-17.372717
225.34799,12.165745,-17.350481
225.34889,12.168218,-17.328274
225.3498,12.170691,-17.306063
225.3507,12.170291,-17.297618
225.35167,12.167452,-17.30002
225.35257,12.164815,-17.30223
225.35347,12.162178,-17.304441
225.35437,12.15954,-17.306637
225.35527,12.156902,-17.308808
225.35619,12.154266,-17.310962
225.35709,12.151628,-17.313131
225.35799,12.14899,-17.315296
225.35889,12.146352,-17.317446
225.35979,12.143713,-17.319589
225.36076,12.140872,-17.321886
225.36166,12.138234,-17.324014
225.36256,12.135595,-17.326119
225.36348,12.132958,-17.328203
225.36438,12.130319,-17.330294
225.36528,12.127679,-17.332385
225.36618,12.12504,-17.334468
