# GET [h], RA [h], DEC [deg]
224.76772,0.18185146,16.877036
224.76862,0.1812822,16.912486
224.76952,0.1807133,16.94796
224.77042,0.18014211,16.983426
224.77132,0.1795694,17.018894
224.7723,0.17895258,17.057072
224.7732,0.17837695,17.092548
224.7741,0.17779964,17.128029
224.775,0.17722175,17.163517
224.77591,0.17664197,17.198971
224.77681,0.1760617,17.234471
224.77771,0.17547802,17.269959
224.77861,0.17489419,17.305457
224.77951,0.17430772,17.340947
224.78041,0.1737197,17.376446
224.78139,0.17308685,17.414656
224.78229,0.17249718,17.450165
224.78319,0.1719045,17.48567
224.7841,0.17140928,17.503965
224.785,0.17096738,17.512609
224.7859,0.17052608,17.521285
224.7868,0.17008311,17.529977
224.7877,0.16963988,17.538693
224.7886,0.16919494,17.547419
224.78958,0.16871706,17.55683
224.79048,0.16827187,17.565613
224.79138,0.16782676,17.574435
224.7923,0.16738239,17.583214
224.7932,0.16693571,17.592073
224.7941,0.1664872,17.600944
224.795,0.16603817,17.609835
224.7959,0.16558951,17.618763
224.7968,0.16514127,17.627721
224.79778,0.164657,17.637346
224.79868,0.16420745,17.646357
224.79958,0.16375569,17.655363
224.80049,0.16300976,17.654222
224.80139,0.16166957,17.63265
224.80229,0.16032985,17.611081
224.80319,0.15899067,17.589517
224.8041,0.15765072,17.5679
224.805,0.15631097,17.546325
224.80591,0.15497084,17.524705
224.80687,0.15352653,17.501488
224.80779,0.15218726,17.479837
224.80869,0.15084662,17.45824
224.80959,0.14950444,17.436629
224.81049,0.14816363,17.415035
224.81139,0.14682193,17.393422
224.81229,0.14548012,17.371803
224.8132,0.14413918,17.350158
224.8141,0.14279717,17.328538
224.81506,0.14134996,17.30527
224.81598,0.140011,17.283602
224.81688,0.13876462,17.261941
224.81778,0.14146424,17.239573
224.81868,0.14416137,17.217186
224.81958,0.14685893,17.19481
224.82048,0.14955439,17.172407
224.8214,0.15225238,17.149966
224.8223,0.15494702,17.12757
224.8232,0.15763945,17.105156
224.82417,0.16053916,17.081015
224.82507,0.16322981,17.058587
224.82597,0.16592096,17.036162
224.82687,0.16861102,17.013735
224.82777,0.17129898,16.991288
224.82867,0.17398714,16.968851
224.82959,0.17667616,16.946345
224.83049,0.17936245,16.923898
224.83139,0.18204678,16.901429
224.83237,0.18493894,16.877211
224.83327,0.18762213,16.854741
224.83417,0.18769047,16.844193
224.83507,0.18672402,16.838372
224.83597,0.18575772,16.832555
224.83687,0.18479127,16.826743
224.83778,0.1838271,16.820909
224.83868,0.18285998,16.815091
224.83958,0.18189405,16.809279
224.84048,0.1809281,16.803465
224.84146,0.17988973,16.797197
224.84236,0.17892408,16.791389
224.84326,0.17795838,16.78558
224.84416,0.17699168,16.77977
224.84506,0.17602711,16.773974
224.84598,0.17506387,16.768127
224.84688,0.17409852,16.762323
224.84778,0.17313303,16.756527
224.84868,0.17216795,16.750732
224.84966,0.17113,16.744464
224.85056,0.17000628,16.741347
224.85146,0.1686529,16.742096
224.85236,0.16730071,16.74286
224.85327,0.16594844,16.74359
224.85417,0.16459509,16.744349
224.85507,0.16324257,16.745111
224.85597,0.16188989,16.745874
224.85687,0.16053803,16.74664
224.85777,0.15918504,16.747408
224.85875,0.15772878,16.748194
224.85965,0.15637758,16.748971
224.86055,0.15502413,16.749734
224.86147,0.15367577,16.750472
224.86237,0.15232251,16.751235
224.86327,0.15097025,16.752002
224.86417,0.14961846,16.752783
224.86507,0.148266,16.753547
224.86597,0.14691351,16.754322
224.86694,0.14551114,16.754227
224.86784,0.14468725,16.745781
224.86874,0.14386269,16.737326
224.86966,0.14304035,16.728835
224.87056,0.14221649,16.720397
224.87146,0.14139252,16.71195
224.87236,0.14056872,16.703506
224.87326,0.13974479,16.695065
224.87416,0.13891995,16.686614
224.87508,0.13809804,16.678136
224.87604,0.13721014,16.669074
224.87694,0.136387,16.66064
224.87785,0.1355633,16.652173
224.87875,0.13473922,16.643742
224.87965,0.13391633,16.635316
224.88055,0.13309301,16.626884
224.88145,0.13226962,16.61846
224.88235,0.13144616,16.610037
224.88327,0.1306254,16.601568
224.88423,0.13089712,16.606833
224.88513,0.13153688,16.616497
224.88605,0.13217605,16.626113
224.88695,0.13281509,16.635809
224.88785,0.13345157,16.645511
224.88875,0.13408929,16.65525
224.88965,0.13472482,16.664985
224.89055,0.13536091,16.674756
224.89146,0.13599915,16.684537
224.89236,0.13663415,16.694344
224.89333,0.13731717,16.704916
224.89424,0.13795322,16.714748
224.89514,0.13858647,16.724611
224.89604,0.13922057,16.734494
224.89694,0.13985352,16.744401
224.89784,0.1404859,16.754326
224.89874,0.14111785,16.764269
224.89966,0.14175262,16.774198
224.90056,0.14302183,16.792506
224.90154,0.14538344,16.825171
224.90244,0.147576,16.855505
224.90334,0.14976833,16.885826
224.90424,0.1519615,16.916127
224.90514,0.1541559,16.946433
224.90604,0.1563483,16.976692
224.90695,0.15854252,17.00692
224.90785,0.16073592,17.037153
224.90875,0.16292968,17.067366
224.90965,0.16512339,17.097559
224.91063,0.16748772,17.130044
224.91153,0.1696819,17.160202
224.91243,0.17187596,17.190348
224.91333,0.17407066,17.22047
224.91423,0.17626517,17.250577
224.91515,0.17846221,17.280618
224.91605,0.18065724,17.31069
224.91695,0.1824179,17.340414
224.91785,0.18030862,17.367207
224.91882,0.17803652,17.396052
224.91972,0.17592651,17.422847
224.92062,0.17381454,17.449613
224.92152,0.17170301,17.476398
224.92242,0.16959168,17.503177
224.92334,0.16748142,17.529909
224.92514,0.16325429,17.583444
224.92604,0.1611412,17.610212
224.92694,0.1590261,17.636975
224.92792,0.15675008,17.66577
224.92882,0.15463486,17.692534
224.92972,0.15251926,17.719283
224.93062,0.15040333,17.746044
224.93153,0.14828634,17.772758
224.93243,0.14616877,17.799505
224.93333,0.14405169,17.826249
224.93423,0.14479587,17.824878
224.93513,0.14628459,17.816162
224.93611,0.1478897,17.806779
224.93701,0.14937929,17.7981
224.93791,0.15086663,17.789415
224.93881,0.15235551,17.780753
224.93973,0.15384523,17.772043
224.94063,0.15533357,17.763399
224.94153,0.15681999,17.754751
224.94243,0.15830775,17.746128
224.94333,0.15979521,17.737509
224.94423,0.1612809,17.728886
224.9452,0.16288201,17.719622
224.9461,0.16436865,17.711029
224.94702,0.16585614,17.702405
224.94792,0.16734207,17.69383
224.94882,0.16882804,17.685266
224.94972,0.17031219,17.676696
224.95062,0.17075724,17.660314
224.95152,0.1701029,17.635644
224.95242,0.16944677,17.610962
224.9534,0.16874136,17.584359
224.9543,0.16808528,17.55967
224.95522,0.16743037,17.534932
224.95612,0.16677466,17.51025
224.95702,0.16611765,17.485555
224.95792,0.16546058,17.460853
224.95882,0.16480321,17.436147
224.95972,0.16414539,17.411439
224.96063,0.16348984,17.386724
224.96431,0.16080735,17.28593
224.96521,0.16014866,17.261205
224.96611,0.1594896,17.236473
224.96701,0.15879516,17.212012
224.96791,0.15793357,17.188757
224.96883,0.15707534,17.165479
224.96973,0.15621342,17.142221
224.97069,0.1552839,17.117194
224.9716,0.15442343,17.093929
224.9725,0.15356138,17.070673
224.9734,0.15269889,17.047422
224.9743,0.1518371,17.024178
224.9752,0.15097378,17.000923
224.9761,0.15011011,16.97767
224.97702,0.14924976,16.954383
224.97792,0.14838621,16.931132
224.97888,0.14745486,16.906105
224.9798,0.14659365,16.882822
224.9807,0.14572902,16.859567
224.9816,0.14486578,16.836331
224.9825,0.14400051,16.813067
224.9834,0.1431356,16.789817
224.9843,0.14461649,16.773673
224.98521,0.14644812,16.758552
224.98611,0.1482786,16.743429
224.98701,0.15010915,16.728295
224.98799,0.15208008,16.711952
224.98889,0.1539099,16.696784
224.98979,0.1557385,16.681593
224.99069,0.15756705,16.666387
224.9916,0.15939683,16.651149
224.9925,0.16122493,16.635908
224.99341,0.16305427,16.620641
224.99431,0.16487944,16.605346
224.99521,0.16670703,16.590057
224.99619,0.1686763,16.573567
224.99709,0.17050142,16.55823
224.99799,0.17232755,16.542883
224.99889,0.17415365,16.527526
224.99979,0.17597927,16.512153
225.0007,0.17530229,16.51946
225.0016,0.1726772,16.544449
225.0025,0.17005051,16.569421
225.0034,0.16742325,16.594399
225.0043,0.16479495,16.619372
225.00528,0.1619632,16.646212
225.00618,0.15933264,16.671162
225.00708,0.1567007,16.696106
225.00798,0.15406867,16.721043
225.0089,0.15143725,16.745935
225.0098,0.14880211,16.770849
225.0107,0.14616514,16.795751
225.0116,0.14352844,16.820653
225.0125,0.14089037,16.845548
225.01347,0.13804942,16.872358
225.01437,0.13540974,16.89725
225.01527,0.13276752,16.92211
225.01617,0.13012627,16.946978
225.01709,0.12872223,16.971274
225.01799,0.13093491,16.994072
225.01889,0.13314758,17.01684
225.01979,0.13536045,17.039597
225.02069,0.13757326,17.062334
225.02159,0.13978804,17.085064
225.02257,0.14217278,17.109483
225.02347,0.14438691,17.13217
225.02437,0.14660208,17.154845
225.02528,0.14881742,17.17747
225.02618,0.15103268,17.200097
225.02708,0.15324744,17.222706
225.02798,0.15546443,17.245313
225.02888,0.15768004,17.267883
225.02979,0.1598967,17.290417
225.03076,0.16228353,17.314686
225.03166,0.16450098,17.337216
225.03256,0.16671856,17.359714
225.03348,0.16893739,17.382153
225.03438,0.1691809,17.402239
225.03528,0.1693142,17.422194
225.03618,0.16944741,17.442152
225.03708,0.16957869,17.462093
225.03798,0.16971108,17.482057
225.0389,0.16984302,17.501968
225.03986,0.16998455,17.523497
225.04077,0.17011529,17.543428
225.04167,0.17024584,17.563401
225.04257,0.17037564,17.583369
225.04347,0.17050497,17.603332
225.04437,0.17063413,17.623315
225.04527,0.17076328,17.64329
225.04617,0.17089028,17.663257
225.04709,0.1710208,17.683206
225.04805,0.17115663,17.704736
225.04897,0.17128594,17.72468
225.04987,0.17141283,17.744667
225.05077,0.17006682,17.74564
225.05167,0.1678915,17.735899
225.05257,0.16571749,17.726151
225.05347,0.16354299,17.716373
225.05438,0.16136836,17.706554
225.05528,0.15919544,17.696761
225.05618,0.15702032,17.68692
225.05716,0.15467899,17.676285
225.05806,0.15250519,17.666427
225.05896,0.15033076,17.656538
225.05986,0.14815654,17.646633
225.06076,0.14598192,17.636702
225.06166,0.14380928,17.626784
225.06258,0.14163674,17.616775
225.06348,0.13946275,17.606804
225.06438,0.13728863,17.596808
225.06535,0.13494803,17.586025
225.06625,0.13277467,17.575991
225.06715,0.13152745,17.561706
225.06805,0.13214339,17.53885
225.06895,0.13275874,17.516006
225.06985,0.13337414,17.493163
225.07077,0.13399102,17.470284
225.07167,0.13460593,17.44745
225.07257,0.13522048,17.424618
225.07347,0.13583498,17.401792
225.07445,0.13649675,17.377198
225.07535,0.13711125,17.354384
225.07625,0.13772428,17.331569
225.07715,0.1383381,17.308769
225.07805,0.13895084,17.285959
225.07896,0.1395654,17.263156
225.07986,0.1401778,17.240369
225.08076,0.14079039,17.217577
225.08167,0.14140322,17.19478
225.08264,0.14206394,17.170259
225.08354,0.14268387,17.14781
225.08444,0.14368305,17.138714
225.08534,0.14468244,17.129608
225.08624,0.14568047,17.120484
225.08716,0.14668026,17.111316
225.08806,0.14767864,17.102181
225.08896,0.14867828,17.093048
225.08986,0.14967675,17.08389
225.09076,0.15067515,17.074727
225.09174,0.15175077,17.064827
225.09264,0.15275022,17.055657
225.09354,0.1537485,17.046467
225.09445,0.15474768,17.037255
225.09535,0.15574597,17.028037
225.09625,0.15674505,17.018831
225.09715,0.15774425,17.009617
225.09805,0.15874188,17.000381
225.09895,0.15974137,16.991156
225.09993,0.16081701,16.981168
225.10083,0.16182336,16.979656
225.10173,0.1628337,16.981215
225.10265,0.16384556,16.982724
225.10355,0.1648556,16.984259
225.10445,0.16586582,16.98579
225.10535,0.1668764,16.987305
225.10625,0.16788922,16.988842
225.10715,0.16890014,16.990337
225.10806,0.16991241,16.991821
225.10902,0.17100102,16.99344
225.10992,0.17201257,16.994917
225.11084,0.1730264,16.996355
225.11174,0.17403814,16.997812
225.11264,0.17505073,16.999271
225.11354,0.17606315,17.000709
225.11444,0.17707594,17.002152
225.11534,0.17808868,17.003578
225.11626,0.17910398,17.004973
225.11722,0.17924519,17.00703
225.11812,0.17793566,17.009715
225.11903,0.1766263,17.012383
225.11993,0.175317,17.01508
225.12083,0.17400824,17.017779
225.12173,0.17269876,17.020469
225.12263,0.171391,17.023176
225.12354,0.17008339,17.025865
225.12445,0.16877627,17.028561
225.12535,0.16746896,17.03128
225.12631,0.16606061,17.034228
225.12723,0.16475551,17.036917
225.12813,0.1634486,17.03964
225.12903,0.16214232,17.042369
225.12993,0.16083631,17.045107
225.13083,0.15953003,17.047838
225.13173,0.15822638,17.050597
225.13264,0.15692193,17.053324
225.13354,0.1556272,17.055929
225.13452,0.15466977,17.052479
225.13542,0.15378011,17.0493
225.13632,0.15289029,17.046113
225.13722,0.15200083,17.04293
225.13812,0.1511121,17.039765
225.13902,0.15022287,17.036584
225.13992,0.14933315,17.033414
225.14084,0.1484454,17.030198
225.14174,0.14755533,17.027012
225.14264,0.14666741,17.023862
225.14362,0.14570981,17.02042
225.14452,0.14482157,17.017253
225.14542,0.14393175,17.014083
225.14632,0.14304222,17.010908
225.14722,0.1421544,17.00775
225.14813,0.14126576,17.004573
225.14903,0.14037642,17.001399
225.14993,0.13948717,16.998229
225.15083,0.14065215,16.988775
225.15181,0.14278267,16.975883
225.15271,0.14476015,16.963938
225.15361,0.14673767,16.952001
225.15451,0.14871441,16.940067
225.15541,0.1506912,16.928139
225.15633,0.15266771,16.91617
225.15723,0.15464462,16.904261
225.15813,0.15661943,16.892338
225.15903,0.15859519,16.880432
225.15993,0.16057039,16.868534
225.1609,0.1626969,16.855723
225.1618,0.16467189,16.843829
225.1627,0.1666461,16.831953
225.1636,0.16862003,16.820072
225.16452,0.17059423,16.808151
225.16542,0.17256758,16.796282
225.16632,0.1745409,16.784421
225.16722,0.17518953,16.774452
225.16812,0.17392292,16.767215
225.1691,0.17255956,16.7594
225.17,0.17129305,16.752161
225.1709,0.17002572,16.744909
225.1718,0.16875977,16.73767
225.17271,0.16749251,16.730395
225.17361,0.16622572,16.72314
225.17451,0.16495883,16.715884
225.17542,0.16369211,16.708603
225.17632,0.16242455,16.701334
225.17729,0.16105977,16.693504
225.17819,0.1597917,16.686234
225.1791,0.1585261,16.678955
225.18,0.15725921,16.671691
225.18091,0.15599213,16.664387
225.18181,0.15472385,16.657095
225.18271,0.15345575,16.649809
225.18361,0.15223569,16.646241
225.18451,0.15142554,16.675604
225.18541,0.15061371,16.704965
225.18639,0.14974017,16.73659
225.18729,0.14892604,16.765978
225.1882,0.14811086,16.795344
225.1891,0.14729319,16.82473
225.19,0.14647433,16.854129
225.1909,0.14565419,16.883534
225.1918,0.14483266,16.912942
225.1927,0.14401079,16.942369
225.1936,0.14318622,16.971786
225.19458,0.14229791,17.003464
225.19548,0.14147002,17.032891
225.1964,0.14064319,17.062296
225.1973,0.13981276,17.09173
225.1982,0.13898171,17.121181
225.1991,0.13814773,17.150625
225.2,0.13731284,17.180076
225.2009,0.13705131,17.207468
225.20181,0.13693884,17.234283
225.20271,0.13682577,17.261115
225.20367,0.13670251,17.289999
225.20459,0.13659172,17.316799
225.20549,0.13647831,17.343607
225.20639,0.13636418,17.370406
225.20729,0.13625178,17.397209
225.20819,0.13613807,17.423992
225.20909,0.13602393,17.450778
225.21,0.13591222,17.477552
225.2109,0.13579777,17.504324
225.21187,0.13567554,17.533137
225.21278,0.1355618,17.55988
225.21368,0.13544789,17.58663
225.21458,0.13533471,17.61339
225.21548,0.13522002,17.640121
225.21638,0.13510617,17.666854
225.21729,0.13613008,17.678303
225.2182,0.13836,17.673578
225.2191,0.1405899,17.668847
225.22,0.14281893,17.664075
225.22098,0.14522065,17.658888
225.22188,0.14745003,17.654059
225.22278,0.14967958,17.649202
225.22368,0.15190939,17.644316
225.22458,0.15413943,17.639401
225.22548,0.15636939,17.63446
225.2264,0.15860115,17.629465
225.2273,0.16083313,17.624475
225.2282,0.1630631,17.619444
225.22917,0.16546553,17.614004
225.23007,0.16769724,17.608927
225.23097,0.16992842,17.603821
225.23187,0.17215904,17.59868
225.23277,0.17439034,17.593512
225.23367,0.17602498,17.586677
225.23459,0.17490126,17.57221
225.23549,0.17377616,17.557775
225.23639,0.17264992,17.543326
225.23729,0.17152436,17.528893
225.23827,0.17031451,17.513347
225.23917,0.16918857,17.498909
225.24007,0.16806374,17.484491
225.24097,0.16693903,17.470068
225.24188,0.16581505,17.455643
225.24278,0.16469074,17.441227
225.24368,0.16356479,17.426799
225.24458,0.16244026,17.41239
225.24548,0.16131622,17.397986
225.24646,0.16010586,17.382452
225.24736,0.15898166,17.368058
225.24826,0.15785782,17.353661
225.24916,0.15673389,17.339269
225.25008,0.1556099,17.324825
225.25098,0.15410996,17.302438
225.25188,0.15255238,17.278828
225.25278,0.15099703,17.25522
225.25368,0.14943974,17.231579
225.25458,0.14788399,17.207938
225.25555,0.14620812,17.182447
225.25645,0.14465131,17.158759
225.25735,0.14309699,17.135088
225.25827,0.14154261,17.111339
225.25917,0.13998814,17.087624
225.26007,0.1384325,17.063885
225.26097,0.13687759,17.040123
225.26187,0.13532379,17.016373
225.26277,0.133769,16.992581
225.26375,0.13209703,16.966956
225.26465,0.13054322,16.943143
225.26555,0.12898859,16.919304
225.26646,0.1274363,16.895458
225.26736,0.12817324,16.88333
225.26826,0.13069163,16.880327
225.26917,0.13320999,16.877332
225.27007,0.13572841,16.874393
225.27097,0.13824636,16.871464
225.27188,0.14076511,16.868555
225.27284,0.14347678,16.865485
225.27374,0.1459953,16.862641
225.27466,0.14851519,16.859792
225.27556,0.15103357,16.857009
225.27646,0.15355286,16.854252
225.27736,0.15607159,16.851512
225.27826,0.15859002,16.848806
225.27916,0.16110837,16.846125
225.28008,0.16362844,16.84343
225.28104,0.16634054,16.84062
225.28195,0.1688603,16.83801
225.28285,0.17137893,16.835425
225.28375,0.17265451,16.84398
225.28465,0.17029085,16.884969
225.28555,0.16792498,16.925936
225.28645,0.16556039,16.966934
225.28735,0.16319242,17.007889
225.28827,0.16082716,17.048832
225.28917,0.1584573,17.089789
225.29015,0.15590537,17.133877
225.29105,0.15353368,17.174823
225.29195,0.15116136,17.215765
225.29285,0.14878725,17.256701
225.29375,0.14641216,17.297627
225.29465,0.14403676,17.338555
225.29556,0.14165954,17.379453
225.29646,0.1392815,17.420362
225.29736,0.13690174,17.461264
225.29834,0.13433895,17.505294
225.29924,0.13195576,17.546165
225.30014,0.12957376,17.587061
225.30104,0.13251421,17.60514
225.30194,0.13575194,17.621931
225.30284,0.13898914,17.638709
225.30376,0.14222907,17.65547
225.30466,0.14546762,17.672255
225.30556,0.14870673,17.68903
225.30646,0.15194439,17.705791
225.30743,0.1554321,17.723835
225.30833,0.15867051,17.740589
225.30923,0.16190969,17.75734
225.31013,0.16514912,17.774089
225.31104,0.16838936,17.790816
225.31195,0.17162878,17.807522
225.31285,0.17486826,17.82425
225.31375,0.17810827,17.840976
225.31465,0.18134715,17.857678
225.31563,0.18483731,17.875654
225.31653,0.18807775,17.892365
225.31743,0.18705646,17.891964
225.31833,0.18363341,17.881913
225.31923,0.18021021,17.871841
225.32014,0.17678875,17.86173
225.32104,0.17336647,17.851596
225.32195,0.16994452,17.841422
225.32285,0.16652198,17.831231
225.32375,0.16309961,17.821012
225.32472,0.15941463,17.809985
225.32562,0.15599242,17.799706
225.32652,0.1525706,17.789403
225.32742,0.14914895,17.779071
225.32834,0.14572861,17.768681
225.32924,0.14230744,17.758298
225.33014,0.13888689,17.7479
225.33104,0.13546596,17.737455
225.33194,0.13204523,17.726981
225.33292,0.1283619,17.715668
225.33382,0.12689738,17.701172
225.33618,0.13337594,17.642448
225.33708,0.1358532,17.620039
225.33798,0.13832905,17.597623
225.33888,0.14080583,17.575243
225.3398,0.14328285,17.552841
225.3407,0.14575776,17.530477
225.3416,0.14823385,17.508151
225.3425,0.15070875,17.485817
225.34348,0.15337438,17.461779
225.34438,0.15584863,17.439487
225.34528,0.15832344,17.417219
225.34618,0.1607972,17.394962
225.34708,0.16327035,17.372717
225.34799,0.16574529,17.350481
225.34889,0.16821848,17.328274
225.3498,0.17069144,17.306063
225.3507,0.17029112,17.297618
225.35167,0.16745199,17.30002
225.35257,0.1648148,17.30223
225.35347,0.16217796,17.304441
225.35437,0.15954022,17.306637
225.35527,0.15690158,17.308808
225.35619,0.15426592,17.310962
225.35709,0.151628,17.313131
225.35799,0.1489899,17.315296
225.35889,0.14635194,17.317446
225.35979,0.14371347,17.319589
225.36076,0.14087234,17.321886
225.36166,0.13823391,17.324014
225.36256,0.13559499,17.326119
225.36348,0.1329575,17.328203
225.36438,0.1303186,17.330294
225.36528,0.12767853,17.332385
225.36618,0.12503983,17.334468
