#GET [h], theta_SUN [deg], phi_SUN [deg], theta_MOON [deg], phi_MOON [deg], theta_EARTH [deg], phi_EARTH [deg] 
224.76772,121.71448,133.1381,9.7948676,-171.34199,96.133075,128.54115
224.76862,121.70185,133.15163,9.743126,-171.30845,96.122979,128.53744
224.76952,121.68919,133.16514,9.6913888,-171.27458,96.112861,128.53372
224.77042,121.67654,133.17865,9.6396898,-171.2406,96.102772,128.53001
224.77132,121.6639,133.19217,9.5880178,-171.20643,96.092695,128.52629
224.7723,121.65028,133.20671,9.5322262,-171.16814,96.081844,128.52231
224.7732,121.63763,133.22023,9.4806067,-171.13355,96.071789,128.51859
224.7741,121.62499,133.23373,9.4290121,-171.09879,96.061749,128.51487
224.775,121.61233,133.24723,9.377438,-171.06376,96.051706,128.51114
224.77591,121.5997,133.26075,9.3257486,-171.02745,96.041697,128.50745
224.77681,121.58704,133.27424,9.274221,-170.99195,96.031668,128.50371
224.77771,121.5744,133.28774,9.2227344,-170.95641,96.021683,128.49999
224.77861,121.56175,133.30123,9.1712667,-170.92054,96.01169,128.49625
224.77951,121.54912,133.31473,9.1198354,-170.88454,96.001729,128.49252
224.78041,121.53648,133.32823,9.0684243,-170.84833,95.991777,128.4888
224.78139,121.52287,133.34276,9.0129185,-170.8077,95.981056,128.48479
224.78229,121.51022,133.35624,8.9615564,-170.77089,95.97111,128.48105
224.78319,121.49759,133.36973,8.9102266,-170.73398,95.961198,128.47732
224.7841,121.49335,133.35989,8.8759516,-170.70014,95.958363,128.45785
224.785,121.49383,133.33687,8.8515316,-170.66998,95.959519,128.42947
224.7859,121.49429,133.31385,8.8271121,-170.6396,95.960651,128.40107
224.7868,121.49476,133.29083,8.802709,-170.60921,95.961796,128.37266
224.7877,121.49522,133.26782,8.7783139,-170.57868,95.962931,128.34425
224.7886,121.49568,133.24481,8.753942,-170.54814,95.964083,128.31582
224.78958,121.49616,133.22002,8.7275303,-170.51372,95.965297,128.2852
224.79048,121.4966,133.19699,8.7031683,-170.48287,95.966422,128.25674
224.79138,121.49701,133.17397,8.6787993,-170.45185,95.967528,128.22826
224.7923,121.49744,133.15095,8.654162,-170.41826,95.968639,128.19981
224.7932,121.49784,133.12792,8.6298212,-170.38704,95.969744,128.17131
224.7941,121.49826,133.1049,8.6055005,-170.35581,95.970866,128.1428
224.795,121.49867,133.08188,8.5811906,-170.32445,95.971984,128.11428
224.7959,121.49906,133.05886,8.556876,-170.29288,95.973079,128.08575
224.7968,121.49942,133.03581,8.5325641,-170.26112,95.974154,128.05718
224.79778,121.49984,133.01102,8.5062567,-170.22557,95.975337,128.02644
224.79868,121.50018,132.98797,8.4819575,-170.19355,95.976401,127.99784
224.79958,121.50055,132.96495,8.4576935,-170.16154,95.977494,127.96927
224.80049,121.51007,132.94622,8.4433794,-170.14949,95.98717,127.94798
224.80139,121.53804,132.93613,8.449564,-170.18174,96.014165,127.94138
224.80229,121.566,132.92603,8.455766,-170.2141,96.041154,127.93477
224.80319,121.59396,132.91595,8.4619858,-170.24655,96.068138,127.92818
224.8041,121.62195,132.90587,8.468112,-170.27803,96.095158,127.92162
224.805,121.64993,132.89579,8.4743857,-170.31082,96.122161,127.91503
224.80591,121.67793,132.88573,8.4805584,-170.34259,96.149191,127.90848
224.80687,121.70807,132.87489,8.4874974,-170.37941,96.178289,127.90139
224.80779,121.73609,132.86483,8.4935792,-170.41025,96.205327,127.89485
224.80869,121.76409,132.85478,8.4999616,-170.44367,96.232364,127.88829
224.80959,121.79212,132.84474,8.5063792,-170.47736,96.259429,127.88175
224.81049,121.82013,132.8347,8.5128023,-170.51107,96.286473,127.8752
224.81139,121.84817,132.82466,8.5192648,-170.54498,96.31354,127.86865
224.81229,121.87621,132.81462,8.5257551,-170.57904,96.340614,127.86212
224.8132,121.90425,132.80462,8.5321271,-170.61199,96.367691,127.85562
224.8141,121.9323,132.79458,8.5386608,-170.64633,96.394774,127.84909
224.81506,121.96252,132.78381,8.5458587,-170.68467,96.423963,127.84206
224.81598,121.99056,132.77378,8.5521552,-170.71674,96.451033,127.83556
224.81688,122.0175,132.76343,8.5588063,-170.74221,96.476948,127.82913
224.81778,121.99793,132.73795,8.566777,-170.38764,96.453766,127.82448
224.81868,121.97836,132.71252,8.5751081,-170.03404,96.430608,127.81986
224.81958,121.95876,132.68709,8.5837721,-169.68118,96.407427,127.81524
224.82048,121.93916,132.66169,8.5928016,-169.32934,96.384269,127.81064
224.8214,121.91953,132.63629,8.6018921,-168.97583,96.361079,127.80606
224.8223,121.89989,132.61091,8.6115941,-168.62577,96.337899,127.80145
224.8232,121.88024,132.58556,8.6216494,-168.27681,96.314742,127.79686
224.82417,121.85906,132.55826,8.6328419,-167.90194,96.289785,127.79191
224.82507,121.83939,132.53294,8.6436029,-167.55507,96.266626,127.78734
224.82597,121.81968,132.50763,8.654692,-167.20913,96.243445,127.78276
224.82687,121.79995,132.48233,8.6661118,-166.86428,96.220264,127.77819
224.82777,121.78023,132.45707,8.6778771,-166.52063,96.197105,127.77363
224.82867,121.76048,132.4318,8.6899587,-166.17801,96.173924,127.76907
224.82959,121.74072,132.40657,8.7021408,-165.83405,96.150747,127.76456
224.83049,121.72093,132.38134,8.7148803,-165.49374,96.127565,127.76001
224.83139,121.70115,132.35614,8.7279607,-165.1547,96.104405,127.75548
224.83237,121.67981,132.32901,8.7422713,-164.78947,96.079438,127.75062
224.83327,121.65999,132.30384,8.7560134,-164.45289,96.056263,127.74609
224.83417,121.66499,132.30226,8.7538294,-164.34555,96.060273,127.74934
224.83507,121.67982,132.31003,8.7452698,-164.32875,96.075042,127.75566
224.83597,121.69464,132.31781,8.7367228,-164.31206,96.089806,127.76199
224.83687,121.70947,132.32559,8.7281873,-164.29553,96.104571,127.76831
224.83778,121.72427,132.33336,8.7195534,-164.27777,96.119316,127.77465
224.83868,121.73911,132.34117,8.7110563,-164.26157,96.134092,127.781
224.83958,121.75393,132.34897,8.7025719,-164.24539,96.148852,127.78735
224.84048,121.76875,132.35677,8.6941052,-164.22937,96.163612,127.79369
224.84146,121.78469,132.36517,8.6848662,-164.21084,96.179487,127.80053
224.84236,121.7995,132.37299,8.6764296,-164.19507,96.194242,127.80689
224.84326,121.81431,132.38081,8.66801,-164.17944,96.208999,127.81325
224.84416,121.82914,132.38864,8.6596067,-164.16404,96.223769,127.81962
224.84506,121.84393,132.39647,8.651209,-164.14858,96.238506,127.82598
224.84598,121.85874,132.40432,8.6426035,-164.13082,96.253247,127.83238
224.84688,121.87354,132.41216,8.6342447,-164.11571,96.267999,127.83876
224.84778,121.88835,132.42001,8.6258956,-164.10076,96.282749,127.84514
224.84868,121.90315,132.42788,8.6175613,-164.08588,96.297494,127.85153
224.84966,121.91908,132.43635,8.6084849,-164.06866,96.313367,127.85842
224.85056,121.93431,132.44601,8.5972526,-164.06731,96.328819,127.86482
224.85146,121.95016,132.4583,8.5818046,-164.0853,96.3453,127.87124
224.85236,121.96599,132.47058,8.5663592,-164.10341,96.361757,127.87764
224.85327,121.98184,132.48288,8.5508272,-164.12061,96.378228,127.88408
224.85417,121.99768,132.49519,8.535418,-164.13929,96.3947,127.89052
224.85507,122.01351,132.50749,8.5200233,-164.15815,96.411159,127.89694
224.85597,122.02933,132.51982,8.5046438,-164.17725,96.427618,127.90338
224.85687,122.04514,132.53213,8.4892786,-164.19652,96.444064,127.9098
224.85777,122.06096,132.54446,8.4739272,-164.21614,96.460523,127.91624
224.85875,122.07801,132.55778,8.4573069,-164.2362,96.478253,127.92322
224.85965,122.0938,132.57012,8.4419828,-164.25615,96.494682,127.92966
224.86055,122.10962,132.58249,8.426685,-164.27654,96.511145,127.93612
224.86147,122.1254,132.59484,8.4111654,-164.29439,96.527551,127.9426
224.86237,122.14121,132.60723,8.3959011,-164.31525,96.54401,127.94907
224.86327,122.15701,132.61961,8.3806505,-164.33627,96.560452,127.95554
224.86417,122.17279,132.63201,8.3654034,-164.35748,96.576881,127.96201
224.86507,122.18858,132.64441,8.3501887,-164.37902,96.593325,127.96849
224.86597,122.20437,132.65683,8.3349792,-164.40078,96.609763,127.97499
224.86694,122.22123,132.6696,8.3196195,-164.41971,96.627233,127.98199
224.86784,122.2358,132.67602,8.314468,-164.39603,96.641485,127.9886
224.86874,122.25038,132.68246,8.3093407,-164.37254,96.65575,127.99523
224.86966,122.26495,132.68891,8.3039992,-164.34665,96.670001,128.00189
224.87056,122.27951,132.69535,8.2988891,-164.32336,96.684251,128.00852
224.87146,122.29408,132.7018,8.2938031,-164.3002,96.698507,128.01515
224.87236,122.30865,132.70826,8.2887308,-164.27716,96.71276,128.0218
224.87326,122.32321,132.71472,8.2836715,-164.25425,96.727014,128.02844
224.87416,122.33779,132.72121,8.2786372,-164.23156,96.741286,128.03511
224.87508,122.35236,132.72768,8.2733821,-164.20642,96.755529,128.04179
224.87604,122.36804,132.73466,8.2680803,-164.18329,96.770878,128.04895
224.87694,122.38259,132.74114,8.2630802,-164.16084,96.785122,128.0556
224.87785,122.39717,132.74765,8.2579953,-164.13742,96.799387,128.0623
224.87875,122.41173,132.75415,8.253022,-164.11531,96.813643,128.06898
224.87965,122.42628,132.76065,8.2480626,-164.09322,96.827882,128.07565
224.88055,122.44084,132.76716,8.2431225,-164.0713,96.84213,128.08233
224.88145,122.45539,132.77367,8.2381913,-164.04952,96.856375,128.08901
224.88235,122.46995,132.78019,8.2332741,-164.02787,96.870622,128.0957
224.88327,122.4845,132.78672,8.2281597,-164.00379,96.884854,128.10243
224.88423,122.47836,132.7771,8.210807,-163.87368,96.878685,128.09181
224.88513,122.46539,132.76261,8.1906017,-163.71509,96.86577,128.07601
224.88605,122.45245,132.74818,8.1702752,-163.5535,96.852882,128.06028
224.88695,122.43946,132.7337,8.1502232,-163.39352,96.839962,128.04448
224.88785,122.4265,132.71927,8.130252,-163.23304,96.827072,128.0287
224.88875,122.41351,132.70483,8.1103404,-163.07171,96.814149,128.0129
224.88965,122.40055,132.69039,8.0905215,-162.90988,96.801257,127.99711
224.89055,122.38756,132.67598,8.0707614,-162.74723,96.78834,127.98132
224.89146,122.37454,132.66154,8.0509648,-162.58246,96.77539,127.96551
224.89236,122.36154,132.64713,8.0313564,-162.41845,96.762472,127.9497
224.89333,122.34755,132.63163,8.0103232,-162.24097,96.748565,127.93269
224.89424,122.33453,132.61722,7.9907657,-162.07412,96.73562,127.91688
224.89514,122.32152,132.60283,7.9713917,-161.90798,96.722699,127.90107
224.89604,122.3085,132.58844,7.9520941,-161.741,96.709757,127.88525
224.89694,122.29547,132.57407,7.9328671,-161.57337,96.69682,127.86943
224.89784,122.28245,132.5597,7.913718,-161.40506,96.683881,127.8536
224.89874,122.26942,132.54533,7.8946453,-161.23603,96.67094,127.83777
224.89966,122.25636,132.53097,7.8754534,-161.06353,96.657967,127.82196
224.90056,122.23107,132.52616,7.8499814,-160.80853,96.632971,127.81483
224.90154,122.18478,132.53587,7.8125403,-160.3981,96.587286,127.82074
224.90244,122.1418,132.54491,7.7782498,-160.01498,96.544877,127.82625
224.90334,122.09884,132.55395,7.7443235,-159.62875,96.502483,127.83177
224.90424,122.05588,132.56304,7.7107746,-159.23928,96.460094,127.83733
224.90514,122.01291,132.57211,7.6775848,-158.84654,96.417694,127.84288
224.90604,121.97,132.58123,7.644798,-158.45087,96.375348,127.8485
224.90695,121.92708,132.59036,7.6123051,-158.0506,96.332998,127.85413
224.90785,121.88418,132.59951,7.5802871,-157.64853,96.290664,127.85978
224.90875,121.84129,132.60868,7.548664,-157.24327,96.248341,127.86545
224.90965,121.79842,132.61786,7.5174402,-156.83491,96.206035,127.87114
224.91063,121.75224,132.62778,7.4841684,-156.39,96.160471,127.87731
224.91153,121.70939,132.637,7.4537829,-155.97507,96.11819,127.88305
224.91243,121.66656,132.64624,7.4238,-155.55703,96.075921,127.88881
224.91333,121.62373,132.65551,7.394238,-155.13582,96.033663,127.89461
224.91423,121.58092,132.66479,7.3650885,-154.71153,95.99142,127.90042
224.91515,121.53812,132.67409,7.3362247,-154.28122,95.94918,127.90628
224.91605,121.49533,132.68342,7.3079259,-153.85071,95.90696,127.91215
224.91695,121.45792,132.69497,7.2785072,-153.46409,95.870365,127.91858
224.91785,121.46829,132.7263,7.2354732,-153.49463,95.883736,127.93002
224.91882,121.47943,132.76002,7.1891406,-153.52814,95.898132,127.94232
224.91972,121.48975,132.79135,7.1461265,-153.55995,95.911485,127.95376
224.92062,121.50009,132.82271,7.1031436,-153.59261,95.924864,127.96521
224.92152,121.51038,132.85406,7.0601567,-153.6258,95.938215,127.97665
224.92242,121.52064,132.88541,7.017188,-153.65958,95.951554,127.9881
224.92334,121.5309,132.91677,6.974094,-153.69108,95.964885,127.99958
224.92514,121.55136,132.97953,6.888221,-153.76231,95.991566,128.0225
224.92604,121.56155,133.01092,6.8453051,-153.79885,96.004881,128.03396
224.92694,121.57173,133.04231,6.8023977,-153.8363,96.01821,128.04543
224.92792,121.58267,133.07612,6.7561367,-153.87566,96.032539,128.05779
224.92882,121.5928,133.10752,6.7132543,-153.91456,96.045843,128.06926
224.92972,121.60291,133.13894,6.6703972,-153.95422,96.059145,128.08074
224.93062,121.613,133.17036,6.6275414,-153.99462,96.072433,128.09222
224.93153,121.6231,133.20181,6.5846449,-154.03447,96.085742,128.10373
224.93243,121.63317,133.23324,6.5418213,-154.07658,96.099031,128.11521
224.93333,121.6432,133.26468,6.4990157,-154.11939,96.112303,128.12671
224.93423,121.63521,133.25567,6.4949951,-153.90248,96.103497,128.12147
224.93513,121.62255,133.23614,6.5012513,-153.61857,96.08896,128.11188
224.93611,121.60888,133.2151,6.5080944,-153.31177,96.073273,128.10157
224.93701,121.59617,133.19556,6.5146879,-153.02921,96.058699,128.09196
224.93791,121.58349,133.17606,6.5214535,-152.74765,96.044154,128.08239
224.93881,121.57077,133.15655,6.5283797,-152.46662,96.029575,128.0728
224.93973,121.55805,133.13705,6.5353539,-152.18335,96.015,128.06323
224.94063,121.54531,133.11755,6.5426102,-151.90391,96.000412,128.05364
224.94153,121.53259,133.09807,6.5500333,-151.6255,95.985846,128.04405
224.94243,121.51983,133.07859,6.5576104,-151.34768,95.971248,128.03446
224.94333,121.50707,133.05912,6.5653541,-151.07071,95.956649,128.02486
224.94423,121.49432,133.03966,6.5732619,-150.79478,95.94207,128.01527
224.9452,121.48056,133.0187,6.5819466,-150.49827,95.92634,128.00494
224.9461,121.46777,132.99925,6.5901813,-150.22391,95.911728,127.99534
224.94702,121.45498,132.97982,6.598459,-149.94736,95.897113,127.98578
224.94792,121.44217,132.96038,6.6070093,-149.67479,95.882494,127.97618
224.94882,121.42935,132.94096,6.6157158,-149.40306,95.867866,127.96658
224.94972,121.41655,132.92154,6.6245821,-149.13245,95.85326,127.95699
224.95062,121.42043,132.90316,6.6352906,-149.00635,95.855429,127.94737
224.95152,121.44197,132.88584,6.647843,-149.03261,95.87536,127.93771
224.95242,121.46354,132.86853,6.6604041,-149.05921,95.895321,127.92806
224.9534,121.48676,132.84989,6.6738855,-149.0863,95.916812,127.91768
224.9543,121.50833,132.83256,6.6864697,-149.11317,95.93678,127.90803
224.95522,121.52992,132.81525,6.6989619,-149.13716,95.956754,127.89842
224.95612,121.55148,132.79792,6.7115567,-149.16421,95.976716,127.88876
224.95702,121.57306,132.7806,6.7241653,-149.19153,95.996703,127.87912
224.95792,121.59465,132.76328,6.7367868,-149.21899,96.016695,127.86949
224.95882,121.61624,132.74596,6.7494181,-149.2466,96.036695,127.85985
224.95972,121.63784,132.72862,6.7620565,-149.27438,96.056703,127.8502
224.96063,121.65941,132.71128,6.7746461,-149.30057,96.076686,127.84057
224.96431,121.7475,132.64061,6.8262562,-149.41401,96.158316,127.80131
224.96521,121.76911,132.62327,6.8389527,-149.44256,96.178353,127.79169
224.96611,121.79074,132.60593,6.8516617,-149.47127,96.1984,127.78206
224.96701,121.81263,132.5913,6.8639397,-149.50075,96.218761,127.77489
224.96791,121.83584,132.58931,6.8742226,-149.53392,96.240638,127.77915
224.96883,121.85903,132.58731,6.8844026,-149.56402,96.262482,127.78343
224.96973,121.88225,132.58533,6.8947045,-149.59735,96.284368,127.78771
224.97069,121.90726,132.58321,6.9058539,-149.63468,96.307949,127.79232
224.9716,121.93047,132.58123,6.9161152,-149.66659,96.329823,127.79661
224.9725,121.95369,132.57926,6.926444,-149.70009,96.351716,127.80091
224.9734,121.97692,132.57731,6.9367757,-149.73367,96.373615,127.80522
224.9743,122.00013,132.57536,6.947114,-149.76721,96.395503,127.80953
224.9752,122.02337,132.57342,6.9574647,-149.80099,96.417419,127.81386
224.9761,122.04661,132.57149,6.9678204,-149.83485,96.439339,127.8182
224.97702,122.06983,132.56956,6.9780842,-149.86573,96.461233,127.82256
224.97792,122.09307,132.56764,6.9884583,-149.89967,96.483155,127.82691
224.97888,122.11811,132.56558,6.9996924,-149.93766,96.506779,127.83159
224.9798,122.14134,132.56367,7.0099773,-149.96879,96.528688,127.83598
224.9807,122.1646,132.56178,7.0203796,-150.00299,96.550632,127.84036
224.9816,122.18783,132.55988,7.0307815,-150.03705,96.572552,127.84474
224.9825,122.2111,132.55801,7.0412082,-150.07143,96.594513,127.84914
224.9834,122.23436,132.55614,7.0516331,-150.10578,96.616464,127.85354
224.9843,122.22563,132.55211,7.0675613,-149.86001,96.605498,127.86267
224.98521,122.21213,132.54775,7.0844317,-149.57247,96.58962,127.8725
224.98611,122.19863,132.54341,7.1015404,-149.2878,96.573753,127.88234
224.98701,122.18513,132.53908,7.1188252,-149.00459,96.557884,127.89218
224.98799,122.1706,132.53442,7.1375858,-148.69991,96.540812,127.90281
224.98889,122.15709,132.53009,7.1552396,-148.41984,96.524955,127.91266
224.98979,122.1436,132.52575,7.1730689,-148.1414,96.509118,127.92251
224.99069,122.1301,132.52143,7.1910717,-147.86444,96.493282,127.93238
224.9916,122.11659,132.51712,7.2092011,-147.58754,96.477438,127.94226
224.9925,122.10309,132.51281,7.2275497,-147.31359,96.461612,127.95214
224.99341,122.08958,132.5085,7.2460191,-147.03972,96.445774,127.96203
224.99431,122.07612,132.50421,7.2647109,-146.7691,96.429998,127.97194
224.99521,122.06261,132.49991,7.2835635,-146.49966,96.414182,127.98183
224.99619,122.04805,132.49527,7.3039973,-146.20968,96.397138,127.99249
224.99709,122.03456,132.491,7.3231927,-145.94362,96.381363,128.00241
224.99799,122.02106,132.48671,7.3425514,-145.67893,96.365573,128.01233
224.99889,122.00756,132.48243,7.3620661,-145.41573,96.349782,128.02224
224.99979,121.99405,132.47814,7.3817383,-145.15406,96.333998,128.03215
225.0007,121.99823,132.49057,7.3654369,-145.07419,96.338847,128.03874
225.0016,122.01614,132.51599,7.3211442,-145.13796,96.35974,128.04271
225.0025,122.03405,132.54144,7.2768693,-145.20277,96.380645,128.04669
225.0034,122.05193,132.56689,7.2325991,-145.26851,96.40154,128.05066
225.0043,122.0698,132.59236,7.1883409,-145.33525,96.422435,128.05463
225.00528,122.08905,132.61981,7.1406686,-145.40699,96.44496,128.05895
225.00618,122.10689,132.64532,7.0964445,-145.47591,96.465862,128.06295
225.00708,122.12472,132.67083,7.0522328,-145.54595,96.48677,128.06694
225.00798,122.14252,132.69636,7.0080405,-145.61696,96.507666,128.07094
225.0089,122.16031,132.7219,6.9637838,-145.6863,96.528558,128.07497
225.0098,122.1781,132.74746,6.9196227,-145.75968,96.549473,128.07899
225.0107,122.19589,132.77305,6.8754761,-145.83429,96.570402,128.08302
225.0116,122.21364,132.79864,6.8313471,-145.90992,96.591313,128.08704
225.0125,122.23138,132.82424,6.7872314,-145.98678,96.612228,128.09106
225.01347,122.25045,132.85182,6.7397355,-146.07064,96.634733,128.0954
225.01437,122.26815,132.87746,6.6956461,-146.14994,96.655637,128.09943
225.01527,122.28586,132.90312,6.6515877,-146.23074,96.676574,128.10349
225.01617,122.30353,132.92876,6.6075443,-146.31258,96.697478,128.10752
225.01709,122.30674,132.94957,6.5713064,-146.25295,96.703123,128.11219
225.01799,122.26772,132.95608,6.5584441,-145.78645,96.664138,128.11853
225.01889,122.22871,132.96264,6.5460341,-145.31842,96.625172,128.12492
225.01979,122.18971,132.96919,6.5340622,-144.84888,96.586213,128.1313
225.02069,122.15072,132.97577,6.5225374,-144.37791,96.547268,128.13772
225.02159,122.11172,132.98234,6.5114629,-143.90533,96.508307,128.14413
225.02257,122.06976,132.98948,6.500011,-143.39351,96.466384,128.15111
225.02347,122.0308,132.99611,6.4898713,-142.91834,96.42746,128.15758
225.02437,121.99183,133.00274,6.4801843,-142.44183,96.388534,128.16406
225.02528,121.9529,133.00941,6.4709298,-141.96283,96.349631,128.1706
225.02618,121.91397,133.0161,6.4621615,-141.48416,96.310735,128.17713
225.02708,121.87505,133.0228,6.4538447,-141.00453,96.271858,128.18369
225.02798,121.83612,133.02951,6.4459858,-140.52367,96.232958,128.19025
